2.044000000000000000e+03
2.044000000000000000e+03
2.044000000000000000e+03
2.044000000000000000e+03
2.044000000000000000e+03
2.046000000000000000e+03
2.051000000000000000e+03
2.055000000000000000e+03
2.061000000000000000e+03
2.063000000000000000e+03
2.065000000000000000e+03
2.067000000000000000e+03
2.068000000000000000e+03
2.067000000000000000e+03
2.067000000000000000e+03
2.064000000000000000e+03
2.060000000000000000e+03
2.055000000000000000e+03
2.052000000000000000e+03
2.048000000000000000e+03
2.045000000000000000e+03
2.045000000000000000e+03
2.044000000000000000e+03
2.043000000000000000e+03
2.044000000000000000e+03
2.048000000000000000e+03
2.053000000000000000e+03
2.058000000000000000e+03
2.062000000000000000e+03
2.063000000000000000e+03
2.065000000000000000e+03
2.066000000000000000e+03
2.068000000000000000e+03
2.067000000000000000e+03
2.065000000000000000e+03
2.063000000000000000e+03
2.059000000000000000e+03
2.055000000000000000e+03
2.052000000000000000e+03
2.048000000000000000e+03
2.048000000000000000e+03
2.048000000000000000e+03
2.046000000000000000e+03
2.047000000000000000e+03
2.048000000000000000e+03
2.049000000000000000e+03
2.053000000000000000e+03
2.059000000000000000e+03
2.063000000000000000e+03
2.064000000000000000e+03
2.067000000000000000e+03
2.069000000000000000e+03
2.070000000000000000e+03
2.069000000000000000e+03
2.065000000000000000e+03
2.063000000000000000e+03
2.060000000000000000e+03
2.057000000000000000e+03
2.053000000000000000e+03
2.049000000000000000e+03
2.046000000000000000e+03
2.046000000000000000e+03
2.045000000000000000e+03
2.045000000000000000e+03
2.045000000000000000e+03
2.046000000000000000e+03
2.052000000000000000e+03
2.056000000000000000e+03
2.060000000000000000e+03
2.061000000000000000e+03
2.063000000000000000e+03
2.066000000000000000e+03
2.067000000000000000e+03
2.066000000000000000e+03
2.063000000000000000e+03
2.059000000000000000e+03
2.054000000000000000e+03
2.052000000000000000e+03
2.049000000000000000e+03
2.045000000000000000e+03
2.043000000000000000e+03
2.041000000000000000e+03
2.040000000000000000e+03
2.041000000000000000e+03
2.041000000000000000e+03
2.043000000000000000e+03
2.048000000000000000e+03
2.053000000000000000e+03
2.058000000000000000e+03
2.060000000000000000e+03
2.063000000000000000e+03
2.064000000000000000e+03
2.066000000000000000e+03
2.065000000000000000e+03
2.064000000000000000e+03
2.060000000000000000e+03
2.057000000000000000e+03
2.053000000000000000e+03
2.051000000000000000e+03
2.048000000000000000e+03
2.046000000000000000e+03
2.046000000000000000e+03
2.047000000000000000e+03
2.048000000000000000e+03
2.049000000000000000e+03
2.051000000000000000e+03
2.056000000000000000e+03
2.063000000000000000e+03
2.067000000000000000e+03
2.068000000000000000e+03
2.071000000000000000e+03
2.072000000000000000e+03
2.073000000000000000e+03
2.075000000000000000e+03
2.073000000000000000e+03
2.070000000000000000e+03
2.068000000000000000e+03
2.063000000000000000e+03
2.061000000000000000e+03
2.056000000000000000e+03
2.054000000000000000e+03
2.054000000000000000e+03
2.052000000000000000e+03
2.052000000000000000e+03
2.052000000000000000e+03
2.054000000000000000e+03
2.058000000000000000e+03
2.064000000000000000e+03
2.068000000000000000e+03
2.071000000000000000e+03
2.072000000000000000e+03
2.072000000000000000e+03
2.073000000000000000e+03
2.072000000000000000e+03
2.069000000000000000e+03
2.065000000000000000e+03
2.061000000000000000e+03
2.058000000000000000e+03
2.054000000000000000e+03
2.049000000000000000e+03
2.048000000000000000e+03
2.046000000000000000e+03
2.046000000000000000e+03
2.045000000000000000e+03
2.045000000000000000e+03
2.046000000000000000e+03
2.050000000000000000e+03
2.053000000000000000e+03
2.057000000000000000e+03
2.060000000000000000e+03
2.061000000000000000e+03
2.063000000000000000e+03
2.065000000000000000e+03
2.065000000000000000e+03
2.063000000000000000e+03
2.060000000000000000e+03
2.057000000000000000e+03
2.051000000000000000e+03
2.046000000000000000e+03
2.044000000000000000e+03
2.043000000000000000e+03
2.042000000000000000e+03
2.042000000000000000e+03
2.041000000000000000e+03
2.041000000000000000e+03
2.043000000000000000e+03
2.046000000000000000e+03
2.051000000000000000e+03
2.056000000000000000e+03
2.060000000000000000e+03
2.062000000000000000e+03
2.064000000000000000e+03
2.065000000000000000e+03
2.065000000000000000e+03
2.063000000000000000e+03
2.061000000000000000e+03
2.058000000000000000e+03
2.055000000000000000e+03
2.051000000000000000e+03
2.046000000000000000e+03
2.043000000000000000e+03
2.043000000000000000e+03
2.041000000000000000e+03
2.041000000000000000e+03
2.041000000000000000e+03
2.044000000000000000e+03
2.049000000000000000e+03
2.053000000000000000e+03
2.058000000000000000e+03
2.060000000000000000e+03
2.062000000000000000e+03
2.063000000000000000e+03
2.064000000000000000e+03
2.063000000000000000e+03
2.059000000000000000e+03
2.057000000000000000e+03
2.057000000000000000e+03
2.052000000000000000e+03
2.050000000000000000e+03
2.045000000000000000e+03
2.042000000000000000e+03
2.042000000000000000e+03
2.040000000000000000e+03
2.041000000000000000e+03
2.041000000000000000e+03
2.042000000000000000e+03
2.046000000000000000e+03
2.052000000000000000e+03
2.056000000000000000e+03
2.059000000000000000e+03
2.060000000000000000e+03
2.064000000000000000e+03
2.066000000000000000e+03
2.066000000000000000e+03
2.064000000000000000e+03
2.061000000000000000e+03
2.058000000000000000e+03
2.052000000000000000e+03
2.049000000000000000e+03
2.045000000000000000e+03
2.043000000000000000e+03
2.043000000000000000e+03
2.042000000000000000e+03
2.041000000000000000e+03
2.041000000000000000e+03
2.042000000000000000e+03
2.047000000000000000e+03
2.052000000000000000e+03
2.056000000000000000e+03
2.059000000000000000e+03
2.060000000000000000e+03
2.063000000000000000e+03
2.063000000000000000e+03
2.063000000000000000e+03
2.061000000000000000e+03
2.058000000000000000e+03
2.054000000000000000e+03
2.049000000000000000e+03
2.044000000000000000e+03
2.040000000000000000e+03
2.037000000000000000e+03
2.034000000000000000e+03
2.030000000000000000e+03
2.026000000000000000e+03
2.022000000000000000e+03
2.019000000000000000e+03
2.019000000000000000e+03
2.018000000000000000e+03
2.020000000000000000e+03
2.020000000000000000e+03
2.020000000000000000e+03
2.023000000000000000e+03
2.024000000000000000e+03
2.025000000000000000e+03
2.026000000000000000e+03
2.026000000000000000e+03
2.027000000000000000e+03
2.028000000000000000e+03
2.028000000000000000e+03
2.029000000000000000e+03
2.029000000000000000e+03
2.032000000000000000e+03
2.035000000000000000e+03
2.039000000000000000e+03
2.048000000000000000e+03
2.060000000000000000e+03
2.080000000000000000e+03
2.107000000000000000e+03
2.140000000000000000e+03
2.174000000000000000e+03
2.210000000000000000e+03
2.246000000000000000e+03
2.280000000000000000e+03
2.311000000000000000e+03
2.335000000000000000e+03
2.355000000000000000e+03
2.373000000000000000e+03
2.385000000000000000e+03
2.395000000000000000e+03
2.402000000000000000e+03
2.409000000000000000e+03
2.419000000000000000e+03
2.426000000000000000e+03
2.434000000000000000e+03
2.439000000000000000e+03
2.443000000000000000e+03
2.446000000000000000e+03
2.443000000000000000e+03
2.435000000000000000e+03
2.421000000000000000e+03
2.400000000000000000e+03
2.375000000000000000e+03
2.342000000000000000e+03
2.305000000000000000e+03
2.264000000000000000e+03
2.221000000000000000e+03
2.183000000000000000e+03
2.146000000000000000e+03
2.117000000000000000e+03
2.095000000000000000e+03
2.080000000000000000e+03
2.071000000000000000e+03
2.066000000000000000e+03
2.060000000000000000e+03
2.057000000000000000e+03
2.053000000000000000e+03
2.055000000000000000e+03
2.056000000000000000e+03
2.058000000000000000e+03
2.058000000000000000e+03
2.058000000000000000e+03
2.059000000000000000e+03
2.057000000000000000e+03
2.056000000000000000e+03
2.052000000000000000e+03
2.045000000000000000e+03
2.043000000000000000e+03
2.036000000000000000e+03
2.030000000000000000e+03
2.025000000000000000e+03
2.021000000000000000e+03
2.020000000000000000e+03
2.015000000000000000e+03
2.015000000000000000e+03
2.013000000000000000e+03
2.015000000000000000e+03
2.019000000000000000e+03
2.023000000000000000e+03
2.026000000000000000e+03
2.028000000000000000e+03
2.030000000000000000e+03
2.031000000000000000e+03
2.032000000000000000e+03
2.032000000000000000e+03
2.029000000000000000e+03
2.027000000000000000e+03
2.024000000000000000e+03
2.020000000000000000e+03
2.015000000000000000e+03
2.010000000000000000e+03
2.006000000000000000e+03
2.007000000000000000e+03
2.008000000000000000e+03
2.007000000000000000e+03
2.007000000000000000e+03
2.009000000000000000e+03
2.012000000000000000e+03
2.018000000000000000e+03
2.020000000000000000e+03
2.022000000000000000e+03
2.025000000000000000e+03
2.029000000000000000e+03
2.029000000000000000e+03
2.031000000000000000e+03
2.029000000000000000e+03
2.026000000000000000e+03
2.024000000000000000e+03
2.021000000000000000e+03
2.017000000000000000e+03
2.014000000000000000e+03
2.011000000000000000e+03
2.014000000000000000e+03
2.012000000000000000e+03
2.012000000000000000e+03
2.012000000000000000e+03
2.013000000000000000e+03
2.018000000000000000e+03
2.022000000000000000e+03
2.027000000000000000e+03
2.031000000000000000e+03
2.031000000000000000e+03
2.035000000000000000e+03
2.038000000000000000e+03
2.039000000000000000e+03
2.037000000000000000e+03
2.033000000000000000e+03
2.030000000000000000e+03
2.027000000000000000e+03
2.023000000000000000e+03
2.019000000000000000e+03
2.017000000000000000e+03
2.018000000000000000e+03
2.016000000000000000e+03
2.016000000000000000e+03
2.016000000000000000e+03
2.018000000000000000e+03
2.022000000000000000e+03
2.026000000000000000e+03
2.030000000000000000e+03
2.033000000000000000e+03
2.035000000000000000e+03
2.038000000000000000e+03
2.039000000000000000e+03
2.040000000000000000e+03
2.040000000000000000e+03
2.037000000000000000e+03
2.035000000000000000e+03
2.033000000000000000e+03
2.030000000000000000e+03
2.025000000000000000e+03
2.025000000000000000e+03
2.024000000000000000e+03
2.023000000000000000e+03
2.022000000000000000e+03
2.023000000000000000e+03
2.025000000000000000e+03
2.030000000000000000e+03
2.035000000000000000e+03
2.040000000000000000e+03
2.042000000000000000e+03
2.043000000000000000e+03
2.044000000000000000e+03
2.048000000000000000e+03
2.047000000000000000e+03
2.046000000000000000e+03
2.044000000000000000e+03
2.043000000000000000e+03
2.038000000000000000e+03
2.035000000000000000e+03
2.033000000000000000e+03
2.033000000000000000e+03
2.032000000000000000e+03
2.032000000000000000e+03
2.031000000000000000e+03
2.032000000000000000e+03
2.034000000000000000e+03
2.040000000000000000e+03
2.045000000000000000e+03
2.050000000000000000e+03
2.053000000000000000e+03
2.056000000000000000e+03
2.061000000000000000e+03
2.060000000000000000e+03
2.063000000000000000e+03
2.062000000000000000e+03
2.061000000000000000e+03
2.060000000000000000e+03
2.055000000000000000e+03
2.050000000000000000e+03
2.047000000000000000e+03
2.045000000000000000e+03
2.046000000000000000e+03
2.045000000000000000e+03
2.046000000000000000e+03
2.045000000000000000e+03
2.048000000000000000e+03
2.053000000000000000e+03
2.057000000000000000e+03
2.061000000000000000e+03
2.064000000000000000e+03
2.067000000000000000e+03
2.070000000000000000e+03
2.071000000000000000e+03
2.071000000000000000e+03
2.070000000000000000e+03
2.069000000000000000e+03
2.067000000000000000e+03
2.064000000000000000e+03
2.060000000000000000e+03
2.056000000000000000e+03
2.056000000000000000e+03
2.057000000000000000e+03
2.055000000000000000e+03
2.055000000000000000e+03
2.054000000000000000e+03
2.056000000000000000e+03
2.062000000000000000e+03
2.067000000000000000e+03
2.072000000000000000e+03
2.076000000000000000e+03
2.078000000000000000e+03
2.080000000000000000e+03
2.083000000000000000e+03
2.084000000000000000e+03
2.083000000000000000e+03
2.082000000000000000e+03
2.080000000000000000e+03
2.077000000000000000e+03
2.073000000000000000e+03
2.071000000000000000e+03
2.070000000000000000e+03
2.070000000000000000e+03
2.070000000000000000e+03
2.070000000000000000e+03
2.070000000000000000e+03
2.072000000000000000e+03
2.079000000000000000e+03
2.084000000000000000e+03
2.089000000000000000e+03
2.093000000000000000e+03
2.096000000000000000e+03
2.097000000000000000e+03
2.100000000000000000e+03
2.102000000000000000e+03
2.100000000000000000e+03
2.098000000000000000e+03
2.095000000000000000e+03
2.093000000000000000e+03
2.089000000000000000e+03
2.087000000000000000e+03
2.085000000000000000e+03
2.084000000000000000e+03
2.085000000000000000e+03
2.086000000000000000e+03
2.086000000000000000e+03
2.088000000000000000e+03
2.093000000000000000e+03
2.100000000000000000e+03
2.104000000000000000e+03
2.107000000000000000e+03
2.109000000000000000e+03
2.110000000000000000e+03
2.113000000000000000e+03
2.114000000000000000e+03
2.113000000000000000e+03
2.110000000000000000e+03
2.110000000000000000e+03
2.105000000000000000e+03
2.102000000000000000e+03
2.098000000000000000e+03
2.097000000000000000e+03
2.097000000000000000e+03
2.096000000000000000e+03
2.095000000000000000e+03
2.094000000000000000e+03
2.096000000000000000e+03
2.101000000000000000e+03
2.105000000000000000e+03
2.110000000000000000e+03
2.113000000000000000e+03
2.115000000000000000e+03
2.117000000000000000e+03
2.119000000000000000e+03
2.119000000000000000e+03
2.117000000000000000e+03
2.114000000000000000e+03
2.113000000000000000e+03
2.107000000000000000e+03
2.103000000000000000e+03
2.099000000000000000e+03
2.097000000000000000e+03
2.097000000000000000e+03
2.096000000000000000e+03
2.096000000000000000e+03
2.094000000000000000e+03
2.096000000000000000e+03
2.099000000000000000e+03
2.103000000000000000e+03
2.105000000000000000e+03
2.107000000000000000e+03
2.107000000000000000e+03
2.108000000000000000e+03
2.107000000000000000e+03
2.106000000000000000e+03
2.102000000000000000e+03
2.097000000000000000e+03
2.094000000000000000e+03
2.088000000000000000e+03
2.082000000000000000e+03
2.076000000000000000e+03
2.072000000000000000e+03
2.069000000000000000e+03
2.065000000000000000e+03
2.062000000000000000e+03
2.060000000000000000e+03
2.060000000000000000e+03
2.062000000000000000e+03
2.064000000000000000e+03
2.067000000000000000e+03
2.067000000000000000e+03
2.067000000000000000e+03
2.069000000000000000e+03
2.068000000000000000e+03
2.065000000000000000e+03
2.062000000000000000e+03
2.057000000000000000e+03
2.053000000000000000e+03
2.045000000000000000e+03
2.041000000000000000e+03
2.035000000000000000e+03
2.032000000000000000e+03
2.030000000000000000e+03
2.025000000000000000e+03
2.023000000000000000e+03
2.021000000000000000e+03
2.022000000000000000e+03
2.025000000000000000e+03
2.028000000000000000e+03
2.029000000000000000e+03
2.030000000000000000e+03
2.031000000000000000e+03
2.030000000000000000e+03
2.032000000000000000e+03
2.031000000000000000e+03
2.027000000000000000e+03
2.024000000000000000e+03
2.021000000000000000e+03
2.015000000000000000e+03
2.010000000000000000e+03
2.005000000000000000e+03
2.003000000000000000e+03
2.002000000000000000e+03
2.000000000000000000e+03
1.998000000000000000e+03
1.997000000000000000e+03
1.997000000000000000e+03
2.001000000000000000e+03
2.004000000000000000e+03
2.008000000000000000e+03
2.011000000000000000e+03
2.012000000000000000e+03
2.013000000000000000e+03
2.015000000000000000e+03
2.016000000000000000e+03
2.014000000000000000e+03
2.012000000000000000e+03
2.009000000000000000e+03
2.004000000000000000e+03
1.999000000000000000e+03
1.995000000000000000e+03
1.992000000000000000e+03
1.993000000000000000e+03
1.991000000000000000e+03
1.989000000000000000e+03
1.989000000000000000e+03
1.992000000000000000e+03
1.997000000000000000e+03
2.002000000000000000e+03
2.007000000000000000e+03
2.010000000000000000e+03
2.012000000000000000e+03
2.012000000000000000e+03
2.014000000000000000e+03
2.016000000000000000e+03
2.015000000000000000e+03
2.012000000000000000e+03
2.011000000000000000e+03
2.006000000000000000e+03
2.001000000000000000e+03
1.997000000000000000e+03
1.995000000000000000e+03
1.996000000000000000e+03
1.995000000000000000e+03
1.994000000000000000e+03
1.995000000000000000e+03
1.997000000000000000e+03
2.002000000000000000e+03
2.006000000000000000e+03
2.010000000000000000e+03
2.013000000000000000e+03
2.016000000000000000e+03
2.019000000000000000e+03
2.022000000000000000e+03
2.021000000000000000e+03
2.019000000000000000e+03
2.017000000000000000e+03
2.015000000000000000e+03
2.011000000000000000e+03
2.007000000000000000e+03
2.003000000000000000e+03
2.003000000000000000e+03
2.003000000000000000e+03
2.001000000000000000e+03
1.999000000000000000e+03
1.999000000000000000e+03
2.002000000000000000e+03
2.007000000000000000e+03
2.011000000000000000e+03
2.015000000000000000e+03
2.017000000000000000e+03
2.021000000000000000e+03
2.022000000000000000e+03
2.025000000000000000e+03
2.025000000000000000e+03
2.024000000000000000e+03
2.022000000000000000e+03
2.019000000000000000e+03
2.015000000000000000e+03
2.011000000000000000e+03
2.008000000000000000e+03
2.007000000000000000e+03
2.006000000000000000e+03
2.003000000000000000e+03
2.003000000000000000e+03
2.002000000000000000e+03
2.007000000000000000e+03
2.010000000000000000e+03
2.017000000000000000e+03
2.021000000000000000e+03
2.023000000000000000e+03
2.027000000000000000e+03
2.030000000000000000e+03
2.032000000000000000e+03
2.032000000000000000e+03
2.031000000000000000e+03
2.028000000000000000e+03
2.025000000000000000e+03
2.021000000000000000e+03
2.017000000000000000e+03
2.013000000000000000e+03
2.012000000000000000e+03
2.011000000000000000e+03
2.010000000000000000e+03
2.009000000000000000e+03
2.008000000000000000e+03
2.012000000000000000e+03
2.015000000000000000e+03
2.020000000000000000e+03
2.024000000000000000e+03
2.027000000000000000e+03
2.030000000000000000e+03
2.032000000000000000e+03
2.033000000000000000e+03
2.033000000000000000e+03
2.032000000000000000e+03
2.030000000000000000e+03
2.028000000000000000e+03
2.023000000000000000e+03
2.019000000000000000e+03
2.015000000000000000e+03
2.015000000000000000e+03
2.014000000000000000e+03
2.013000000000000000e+03
2.010000000000000000e+03
2.010000000000000000e+03
2.013000000000000000e+03
2.018000000000000000e+03
2.023000000000000000e+03
2.027000000000000000e+03
2.031000000000000000e+03
2.033000000000000000e+03
2.034000000000000000e+03
2.037000000000000000e+03
2.038000000000000000e+03
2.037000000000000000e+03
2.034000000000000000e+03
2.032000000000000000e+03
2.027000000000000000e+03
2.023000000000000000e+03
2.018000000000000000e+03
2.016000000000000000e+03
2.015000000000000000e+03
2.014000000000000000e+03
2.013000000000000000e+03
2.013000000000000000e+03
2.016000000000000000e+03
2.019000000000000000e+03
2.024000000000000000e+03
2.029000000000000000e+03
2.031000000000000000e+03
2.035000000000000000e+03
2.037000000000000000e+03
2.038000000000000000e+03
2.038000000000000000e+03
2.036000000000000000e+03
2.035000000000000000e+03
2.031000000000000000e+03
2.027000000000000000e+03
2.023000000000000000e+03
2.019000000000000000e+03
2.017000000000000000e+03
2.016000000000000000e+03
2.014000000000000000e+03
2.012000000000000000e+03
2.013000000000000000e+03
2.017000000000000000e+03
2.020000000000000000e+03
2.025000000000000000e+03
2.029000000000000000e+03
2.032000000000000000e+03
2.035000000000000000e+03
2.036000000000000000e+03
2.039000000000000000e+03
2.038000000000000000e+03
2.037000000000000000e+03
2.034000000000000000e+03
2.031000000000000000e+03
2.028000000000000000e+03
2.023000000000000000e+03
2.019000000000000000e+03
2.018000000000000000e+03
2.017000000000000000e+03
2.016000000000000000e+03
2.015000000000000000e+03
2.015000000000000000e+03
2.018000000000000000e+03
2.021000000000000000e+03
2.028000000000000000e+03
2.031000000000000000e+03
2.033000000000000000e+03
2.035000000000000000e+03
2.037000000000000000e+03
2.038000000000000000e+03
2.037000000000000000e+03
2.038000000000000000e+03
2.036000000000000000e+03
2.033000000000000000e+03
2.030000000000000000e+03
2.025000000000000000e+03
2.021000000000000000e+03
2.019000000000000000e+03
2.017000000000000000e+03
2.017000000000000000e+03
2.016000000000000000e+03
2.016000000000000000e+03
2.017000000000000000e+03
2.022000000000000000e+03
2.027000000000000000e+03
2.030000000000000000e+03
2.033000000000000000e+03
2.036000000000000000e+03
2.037000000000000000e+03
2.039000000000000000e+03
2.039000000000000000e+03
2.038000000000000000e+03
2.035000000000000000e+03
2.032000000000000000e+03
2.030000000000000000e+03
2.025000000000000000e+03
2.023000000000000000e+03
2.021000000000000000e+03
2.020000000000000000e+03
2.019000000000000000e+03
2.018000000000000000e+03
2.018000000000000000e+03
2.020000000000000000e+03
2.025000000000000000e+03
2.030000000000000000e+03
2.033000000000000000e+03
2.036000000000000000e+03
2.038000000000000000e+03
2.041000000000000000e+03
2.041000000000000000e+03
2.040000000000000000e+03
2.040000000000000000e+03
2.039000000000000000e+03
2.037000000000000000e+03
2.033000000000000000e+03
2.029000000000000000e+03
2.025000000000000000e+03
2.023000000000000000e+03
2.023000000000000000e+03
2.021000000000000000e+03
2.019000000000000000e+03
2.019000000000000000e+03
2.022000000000000000e+03
2.027000000000000000e+03
2.032000000000000000e+03
2.036000000000000000e+03
2.039000000000000000e+03
2.041000000000000000e+03
2.044000000000000000e+03
2.046000000000000000e+03
2.046000000000000000e+03
2.046000000000000000e+03
2.043000000000000000e+03
2.041000000000000000e+03
2.036000000000000000e+03
2.032000000000000000e+03
2.030000000000000000e+03
2.028000000000000000e+03
2.027000000000000000e+03
2.025000000000000000e+03
2.024000000000000000e+03
2.024000000000000000e+03
2.028000000000000000e+03
2.032000000000000000e+03
2.036000000000000000e+03
2.040000000000000000e+03
2.042000000000000000e+03
2.045000000000000000e+03
2.046000000000000000e+03
2.049000000000000000e+03
2.049000000000000000e+03
2.048000000000000000e+03
2.048000000000000000e+03
2.044000000000000000e+03
2.040000000000000000e+03
2.036000000000000000e+03
2.033000000000000000e+03
2.031000000000000000e+03
2.031000000000000000e+03
2.029000000000000000e+03
2.029000000000000000e+03
2.028000000000000000e+03
2.032000000000000000e+03
2.036000000000000000e+03
2.042000000000000000e+03
2.045000000000000000e+03
2.049000000000000000e+03
2.052000000000000000e+03
2.054000000000000000e+03
2.055000000000000000e+03
2.054000000000000000e+03
2.054000000000000000e+03
2.052000000000000000e+03
2.049000000000000000e+03
2.044000000000000000e+03
2.038000000000000000e+03
2.035000000000000000e+03
2.033000000000000000e+03
2.033000000000000000e+03
2.031000000000000000e+03
2.029000000000000000e+03
2.030000000000000000e+03
2.034000000000000000e+03
2.037000000000000000e+03
2.042000000000000000e+03
2.046000000000000000e+03
2.049000000000000000e+03
2.050000000000000000e+03
2.053000000000000000e+03
2.055000000000000000e+03
2.056000000000000000e+03
2.055000000000000000e+03
2.053000000000000000e+03
2.049000000000000000e+03
2.045000000000000000e+03
2.041000000000000000e+03
2.038000000000000000e+03
2.037000000000000000e+03
2.037000000000000000e+03
2.036000000000000000e+03
2.034000000000000000e+03
2.036000000000000000e+03
2.039000000000000000e+03
2.043000000000000000e+03
2.047000000000000000e+03
2.051000000000000000e+03
2.055000000000000000e+03
2.056000000000000000e+03
2.057000000000000000e+03
2.060000000000000000e+03
2.061000000000000000e+03
2.059000000000000000e+03
2.057000000000000000e+03
2.053000000000000000e+03
2.049000000000000000e+03
2.044000000000000000e+03
2.041000000000000000e+03
2.040000000000000000e+03
2.037000000000000000e+03
2.036000000000000000e+03
2.034000000000000000e+03
2.034000000000000000e+03
2.038000000000000000e+03
2.041000000000000000e+03
2.048000000000000000e+03
2.051000000000000000e+03
2.054000000000000000e+03
2.057000000000000000e+03
2.058000000000000000e+03
2.060000000000000000e+03
2.060000000000000000e+03
2.059000000000000000e+03
2.057000000000000000e+03
2.054000000000000000e+03
2.049000000000000000e+03
2.042000000000000000e+03
2.041000000000000000e+03
2.040000000000000000e+03
2.039000000000000000e+03
2.038000000000000000e+03
2.035000000000000000e+03
2.037000000000000000e+03
2.040000000000000000e+03
2.044000000000000000e+03
2.049000000000000000e+03
2.050000000000000000e+03
2.056000000000000000e+03
2.058000000000000000e+03
2.061000000000000000e+03
2.061000000000000000e+03
2.061000000000000000e+03
2.059000000000000000e+03
2.056000000000000000e+03
2.052000000000000000e+03
2.049000000000000000e+03
2.043000000000000000e+03
2.040000000000000000e+03
2.040000000000000000e+03
2.038000000000000000e+03
2.037000000000000000e+03
2.035000000000000000e+03
2.036000000000000000e+03
2.038000000000000000e+03
2.042000000000000000e+03
2.047000000000000000e+03
2.051000000000000000e+03
2.054000000000000000e+03
2.056000000000000000e+03
2.060000000000000000e+03
2.062000000000000000e+03
2.061000000000000000e+03
2.060000000000000000e+03
2.058000000000000000e+03
2.052000000000000000e+03
2.050000000000000000e+03
2.044000000000000000e+03
2.041000000000000000e+03
2.041000000000000000e+03
2.040000000000000000e+03
2.038000000000000000e+03
2.037000000000000000e+03
2.037000000000000000e+03
2.040000000000000000e+03
2.044000000000000000e+03
2.049000000000000000e+03
2.052000000000000000e+03
2.055000000000000000e+03
2.057000000000000000e+03
2.059000000000000000e+03
2.060000000000000000e+03
2.060000000000000000e+03
2.058000000000000000e+03
2.057000000000000000e+03
2.053000000000000000e+03
2.048000000000000000e+03
2.044000000000000000e+03
2.041000000000000000e+03
2.040000000000000000e+03
2.038000000000000000e+03
2.036000000000000000e+03
2.036000000000000000e+03
2.036000000000000000e+03
2.042000000000000000e+03
2.048000000000000000e+03
2.053000000000000000e+03
2.057000000000000000e+03
2.060000000000000000e+03
2.064000000000000000e+03
2.066000000000000000e+03
2.067000000000000000e+03
2.067000000000000000e+03
2.068000000000000000e+03
2.065000000000000000e+03
2.062000000000000000e+03
2.058000000000000000e+03
2.054000000000000000e+03
2.052000000000000000e+03
2.051000000000000000e+03
2.049000000000000000e+03
2.048000000000000000e+03
2.047000000000000000e+03
2.047000000000000000e+03
2.050000000000000000e+03
2.053000000000000000e+03
2.058000000000000000e+03
2.062000000000000000e+03
2.065000000000000000e+03
2.069000000000000000e+03
2.069000000000000000e+03
2.072000000000000000e+03
2.070000000000000000e+03
2.068000000000000000e+03
2.065000000000000000e+03
2.060000000000000000e+03
2.056000000000000000e+03
2.052000000000000000e+03
2.048000000000000000e+03
2.045000000000000000e+03
2.042000000000000000e+03
2.040000000000000000e+03
2.040000000000000000e+03
2.042000000000000000e+03
2.045000000000000000e+03
2.050000000000000000e+03
2.053000000000000000e+03
2.057000000000000000e+03
2.060000000000000000e+03
2.063000000000000000e+03
2.063000000000000000e+03
2.064000000000000000e+03
2.063000000000000000e+03
2.062000000000000000e+03
2.060000000000000000e+03
2.056000000000000000e+03
2.050000000000000000e+03
2.045000000000000000e+03
2.042000000000000000e+03
2.042000000000000000e+03
2.040000000000000000e+03
2.039000000000000000e+03
2.037000000000000000e+03
2.037000000000000000e+03
2.040000000000000000e+03
2.044000000000000000e+03
2.050000000000000000e+03
2.053000000000000000e+03
2.056000000000000000e+03
2.059000000000000000e+03
2.060000000000000000e+03
2.062000000000000000e+03
2.062000000000000000e+03
2.061000000000000000e+03
2.060000000000000000e+03
2.057000000000000000e+03
2.053000000000000000e+03
2.048000000000000000e+03
2.044000000000000000e+03
2.044000000000000000e+03
2.043000000000000000e+03
2.042000000000000000e+03
2.041000000000000000e+03
2.040000000000000000e+03
2.045000000000000000e+03
2.049000000000000000e+03
2.054000000000000000e+03
2.057000000000000000e+03
2.061000000000000000e+03
2.064000000000000000e+03
2.066000000000000000e+03
2.066000000000000000e+03
2.065000000000000000e+03
2.063000000000000000e+03
2.062000000000000000e+03
2.059000000000000000e+03
2.055000000000000000e+03
2.050000000000000000e+03
2.046000000000000000e+03
2.044000000000000000e+03
2.044000000000000000e+03
2.043000000000000000e+03
2.041000000000000000e+03
2.042000000000000000e+03
2.048000000000000000e+03
2.051000000000000000e+03
2.054000000000000000e+03
2.058000000000000000e+03
2.062000000000000000e+03
2.065000000000000000e+03
2.066000000000000000e+03
2.067000000000000000e+03
2.066000000000000000e+03
2.064000000000000000e+03
2.063000000000000000e+03
2.060000000000000000e+03
2.055000000000000000e+03
2.050000000000000000e+03
2.048000000000000000e+03
2.047000000000000000e+03
2.047000000000000000e+03
2.046000000000000000e+03
2.044000000000000000e+03
2.044000000000000000e+03
2.048000000000000000e+03
2.052000000000000000e+03
2.057000000000000000e+03
2.061000000000000000e+03
2.064000000000000000e+03
2.066000000000000000e+03
2.067000000000000000e+03
2.067000000000000000e+03
2.065000000000000000e+03
2.064000000000000000e+03
2.061000000000000000e+03
2.057000000000000000e+03
2.052000000000000000e+03
2.047000000000000000e+03
2.043000000000000000e+03
2.042000000000000000e+03
2.037000000000000000e+03
2.033000000000000000e+03
2.029000000000000000e+03
2.024000000000000000e+03
2.024000000000000000e+03
2.023000000000000000e+03
2.023000000000000000e+03
2.022000000000000000e+03
2.021000000000000000e+03
2.021000000000000000e+03
2.023000000000000000e+03
2.023000000000000000e+03
2.023000000000000000e+03
2.025000000000000000e+03
2.026000000000000000e+03
2.027000000000000000e+03
2.026000000000000000e+03
2.025000000000000000e+03
2.026000000000000000e+03
2.030000000000000000e+03
2.030000000000000000e+03
2.033000000000000000e+03
2.035000000000000000e+03
2.044000000000000000e+03
2.059000000000000000e+03
2.077000000000000000e+03
2.104000000000000000e+03
2.136000000000000000e+03
2.170000000000000000e+03
2.207000000000000000e+03
2.241000000000000000e+03
2.273000000000000000e+03
2.299000000000000000e+03
2.320000000000000000e+03
2.340000000000000000e+03
2.353000000000000000e+03
2.365000000000000000e+03
2.371000000000000000e+03
2.378000000000000000e+03
2.387000000000000000e+03
2.394000000000000000e+03
2.403000000000000000e+03
2.411000000000000000e+03
2.418000000000000000e+03
2.426000000000000000e+03
2.430000000000000000e+03
2.430000000000000000e+03
2.423000000000000000e+03
2.413000000000000000e+03
2.395000000000000000e+03
2.372000000000000000e+03
2.342000000000000000e+03
2.304000000000000000e+03
2.266000000000000000e+03
2.225000000000000000e+03
2.187000000000000000e+03
2.148000000000000000e+03
2.115000000000000000e+03
2.091000000000000000e+03
2.076000000000000000e+03
2.066000000000000000e+03
2.057000000000000000e+03
2.052000000000000000e+03
2.048000000000000000e+03
2.048000000000000000e+03
2.050000000000000000e+03
2.052000000000000000e+03
2.054000000000000000e+03
2.054000000000000000e+03
2.056000000000000000e+03
2.055000000000000000e+03
2.053000000000000000e+03
2.051000000000000000e+03
2.047000000000000000e+03
2.043000000000000000e+03
2.039000000000000000e+03
2.034000000000000000e+03
2.028000000000000000e+03
2.023000000000000000e+03
2.020000000000000000e+03
2.018000000000000000e+03
2.015000000000000000e+03
2.013000000000000000e+03
2.013000000000000000e+03
2.017000000000000000e+03
2.021000000000000000e+03
2.024000000000000000e+03
2.027000000000000000e+03
2.029000000000000000e+03
2.029000000000000000e+03
2.032000000000000000e+03
2.032000000000000000e+03
2.030000000000000000e+03
2.029000000000000000e+03
2.027000000000000000e+03
2.022000000000000000e+03
2.018000000000000000e+03
2.014000000000000000e+03
2.011000000000000000e+03
2.010000000000000000e+03
2.008000000000000000e+03
2.006000000000000000e+03
2.006000000000000000e+03
2.008000000000000000e+03
2.011000000000000000e+03
2.016000000000000000e+03
2.020000000000000000e+03
2.023000000000000000e+03
2.027000000000000000e+03
2.030000000000000000e+03
2.030000000000000000e+03
2.031000000000000000e+03
2.030000000000000000e+03
2.030000000000000000e+03
2.027000000000000000e+03
2.023000000000000000e+03
2.018000000000000000e+03
2.015000000000000000e+03
2.014000000000000000e+03
2.012000000000000000e+03
2.012000000000000000e+03
2.010000000000000000e+03
2.008000000000000000e+03
2.008000000000000000e+03
2.013000000000000000e+03
2.017000000000000000e+03
2.021000000000000000e+03
2.025000000000000000e+03
2.028000000000000000e+03
2.032000000000000000e+03
2.033000000000000000e+03
2.034000000000000000e+03
2.034000000000000000e+03
2.033000000000000000e+03
2.033000000000000000e+03
2.028000000000000000e+03
2.024000000000000000e+03
2.020000000000000000e+03
2.019000000000000000e+03
2.018000000000000000e+03
2.017000000000000000e+03
2.017000000000000000e+03
2.016000000000000000e+03
2.017000000000000000e+03
2.020000000000000000e+03
2.024000000000000000e+03
2.029000000000000000e+03
2.033000000000000000e+03
2.037000000000000000e+03
2.041000000000000000e+03
2.043000000000000000e+03
2.043000000000000000e+03
2.044000000000000000e+03
2.043000000000000000e+03
2.041000000000000000e+03
2.036000000000000000e+03
2.032000000000000000e+03
2.028000000000000000e+03
2.026000000000000000e+03
2.025000000000000000e+03
2.023000000000000000e+03
2.022000000000000000e+03
2.021000000000000000e+03
2.024000000000000000e+03
2.028000000000000000e+03
2.033000000000000000e+03
2.037000000000000000e+03
2.042000000000000000e+03
2.046000000000000000e+03
2.048000000000000000e+03
2.052000000000000000e+03
2.053000000000000000e+03
2.051000000000000000e+03
2.048000000000000000e+03
2.047000000000000000e+03
2.042000000000000000e+03
2.038000000000000000e+03
2.035000000000000000e+03
2.033000000000000000e+03
2.034000000000000000e+03
2.032000000000000000e+03
2.030000000000000000e+03
2.032000000000000000e+03
2.032000000000000000e+03
2.036000000000000000e+03
2.040000000000000000e+03
2.045000000000000000e+03
2.048000000000000000e+03
2.053000000000000000e+03
2.057000000000000000e+03
2.059000000000000000e+03
2.060000000000000000e+03
2.059000000000000000e+03
2.059000000000000000e+03
2.056000000000000000e+03
2.054000000000000000e+03
2.050000000000000000e+03
2.046000000000000000e+03
2.043000000000000000e+03
2.044000000000000000e+03
2.044000000000000000e+03
2.042000000000000000e+03
2.042000000000000000e+03
2.044000000000000000e+03
2.049000000000000000e+03
2.053000000000000000e+03
2.057000000000000000e+03
2.061000000000000000e+03
2.064000000000000000e+03
2.068000000000000000e+03
2.068000000000000000e+03
2.070000000000000000e+03
2.069000000000000000e+03
2.069000000000000000e+03
2.066000000000000000e+03
2.063000000000000000e+03
2.060000000000000000e+03
2.056000000000000000e+03
2.054000000000000000e+03
2.055000000000000000e+03
2.053000000000000000e+03
2.051000000000000000e+03
2.050000000000000000e+03
2.053000000000000000e+03
2.058000000000000000e+03
2.062000000000000000e+03
2.067000000000000000e+03
2.071000000000000000e+03
2.076000000000000000e+03
2.080000000000000000e+03
2.080000000000000000e+03
2.081000000000000000e+03
2.081000000000000000e+03
2.079000000000000000e+03
2.076000000000000000e+03
2.075000000000000000e+03
2.072000000000000000e+03
2.068000000000000000e+03
2.065000000000000000e+03
2.066000000000000000e+03
2.064000000000000000e+03
2.061000000000000000e+03
2.063000000000000000e+03
2.065000000000000000e+03
2.070000000000000000e+03
2.075000000000000000e+03
2.080000000000000000e+03
2.085000000000000000e+03
2.090000000000000000e+03
2.092000000000000000e+03
2.097000000000000000e+03
2.098000000000000000e+03
2.096000000000000000e+03
2.096000000000000000e+03
2.095000000000000000e+03
2.089000000000000000e+03
2.087000000000000000e+03
2.082000000000000000e+03
2.080000000000000000e+03
2.078000000000000000e+03
2.078000000000000000e+03
2.078000000000000000e+03
2.078000000000000000e+03
2.079000000000000000e+03
2.084000000000000000e+03
2.088000000000000000e+03
2.093000000000000000e+03
2.098000000000000000e+03
2.101000000000000000e+03
2.105000000000000000e+03
2.107000000000000000e+03
2.108000000000000000e+03
2.108000000000000000e+03
2.106000000000000000e+03
2.102000000000000000e+03
2.100000000000000000e+03
2.095000000000000000e+03
2.091000000000000000e+03
2.088000000000000000e+03
2.085000000000000000e+03
2.086000000000000000e+03
2.084000000000000000e+03
2.084000000000000000e+03
2.086000000000000000e+03
2.091000000000000000e+03
2.094000000000000000e+03
2.100000000000000000e+03
2.102000000000000000e+03
2.105000000000000000e+03
2.107000000000000000e+03
2.110000000000000000e+03
2.111000000000000000e+03
2.111000000000000000e+03
2.108000000000000000e+03
2.107000000000000000e+03
2.102000000000000000e+03
2.097000000000000000e+03
2.091000000000000000e+03
2.088000000000000000e+03
2.087000000000000000e+03
2.085000000000000000e+03
2.083000000000000000e+03
2.080000000000000000e+03
2.081000000000000000e+03
2.085000000000000000e+03
2.088000000000000000e+03
2.091000000000000000e+03
2.093000000000000000e+03
2.095000000000000000e+03
2.097000000000000000e+03
2.096000000000000000e+03
2.094000000000000000e+03
2.091000000000000000e+03
2.088000000000000000e+03
2.084000000000000000e+03
2.078000000000000000e+03
2.071000000000000000e+03
2.065000000000000000e+03
2.060000000000000000e+03
2.057000000000000000e+03
2.054000000000000000e+03
2.051000000000000000e+03
2.048000000000000000e+03
2.048000000000000000e+03
2.050000000000000000e+03
2.051000000000000000e+03
2.055000000000000000e+03
2.057000000000000000e+03
2.058000000000000000e+03
2.061000000000000000e+03
2.059000000000000000e+03
2.058000000000000000e+03
2.055000000000000000e+03
2.051000000000000000e+03
2.048000000000000000e+03
2.042000000000000000e+03
2.034000000000000000e+03
2.030000000000000000e+03
2.025000000000000000e+03
2.023000000000000000e+03
2.021000000000000000e+03
2.019000000000000000e+03
2.017000000000000000e+03
2.017000000000000000e+03
2.020000000000000000e+03
2.023000000000000000e+03
2.026000000000000000e+03
2.029000000000000000e+03
2.031000000000000000e+03
2.032000000000000000e+03
2.032000000000000000e+03
2.030000000000000000e+03
2.029000000000000000e+03
2.026000000000000000e+03
2.022000000000000000e+03
2.017000000000000000e+03
2.011000000000000000e+03
2.006000000000000000e+03
2.004000000000000000e+03
2.002000000000000000e+03
1.999000000000000000e+03
1.997000000000000000e+03
1.997000000000000000e+03
1.999000000000000000e+03
2.003000000000000000e+03
2.007000000000000000e+03
2.011000000000000000e+03
2.013000000000000000e+03
2.016000000000000000e+03
2.016000000000000000e+03
2.019000000000000000e+03
2.019000000000000000e+03
2.017000000000000000e+03
2.016000000000000000e+03
2.014000000000000000e+03
2.008000000000000000e+03
2.005000000000000000e+03
2.001000000000000000e+03
1.999000000000000000e+03
1.997000000000000000e+03
1.997000000000000000e+03
1.995000000000000000e+03
1.994000000000000000e+03
1.997000000000000000e+03
2.001000000000000000e+03
2.005000000000000000e+03
2.010000000000000000e+03
2.014000000000000000e+03
2.016000000000000000e+03
2.020000000000000000e+03
2.022000000000000000e+03
2.022000000000000000e+03
2.021000000000000000e+03
2.019000000000000000e+03
2.017000000000000000e+03
2.012000000000000000e+03
2.008000000000000000e+03
2.003000000000000000e+03
2.003000000000000000e+03
2.002000000000000000e+03
2.001000000000000000e+03
2.000000000000000000e+03
1.999000000000000000e+03
2.001000000000000000e+03
2.005000000000000000e+03
2.010000000000000000e+03
2.012000000000000000e+03
2.017000000000000000e+03
2.021000000000000000e+03
2.026000000000000000e+03
2.027000000000000000e+03
2.027000000000000000e+03
2.026000000000000000e+03
2.026000000000000000e+03
2.023000000000000000e+03
2.019000000000000000e+03
2.014000000000000000e+03
2.011000000000000000e+03
2.009000000000000000e+03
2.008000000000000000e+03
2.006000000000000000e+03
2.005000000000000000e+03
2.005000000000000000e+03
2.006000000000000000e+03
2.011000000000000000e+03
2.016000000000000000e+03
2.022000000000000000e+03
2.025000000000000000e+03
2.030000000000000000e+03
2.031000000000000000e+03
2.033000000000000000e+03
2.032000000000000000e+03
2.030000000000000000e+03
2.029000000000000000e+03
2.026000000000000000e+03
2.023000000000000000e+03
2.018000000000000000e+03
2.014000000000000000e+03
2.012000000000000000e+03
2.011000000000000000e+03
2.011000000000000000e+03
2.009000000000000000e+03
2.010000000000000000e+03
2.012000000000000000e+03
2.017000000000000000e+03
2.021000000000000000e+03
2.024000000000000000e+03
2.030000000000000000e+03
2.034000000000000000e+03
2.037000000000000000e+03
2.039000000000000000e+03
2.038000000000000000e+03
2.037000000000000000e+03
2.036000000000000000e+03
2.032000000000000000e+03
2.029000000000000000e+03
2.025000000000000000e+03
2.020000000000000000e+03
2.017000000000000000e+03
2.016000000000000000e+03
2.016000000000000000e+03
2.016000000000000000e+03
2.016000000000000000e+03
2.017000000000000000e+03
2.022000000000000000e+03
2.026000000000000000e+03
2.029000000000000000e+03
2.033000000000000000e+03
2.036000000000000000e+03
2.040000000000000000e+03
2.041000000000000000e+03
2.040000000000000000e+03
2.041000000000000000e+03
2.038000000000000000e+03
2.036000000000000000e+03
2.030000000000000000e+03
2.026000000000000000e+03
2.022000000000000000e+03
2.020000000000000000e+03
2.018000000000000000e+03
2.018000000000000000e+03
2.017000000000000000e+03
2.018000000000000000e+03
2.020000000000000000e+03
2.024000000000000000e+03
2.029000000000000000e+03
2.031000000000000000e+03
2.035000000000000000e+03
2.040000000000000000e+03
2.044000000000000000e+03
2.045000000000000000e+03
2.045000000000000000e+03
2.043000000000000000e+03
2.042000000000000000e+03
2.039000000000000000e+03
2.034000000000000000e+03
2.029000000000000000e+03
2.024000000000000000e+03
2.021000000000000000e+03
2.020000000000000000e+03
2.018000000000000000e+03
2.017000000000000000e+03
2.017000000000000000e+03
2.020000000000000000e+03
2.025000000000000000e+03
2.029000000000000000e+03
2.034000000000000000e+03
2.036000000000000000e+03
2.039000000000000000e+03
2.041000000000000000e+03
2.042000000000000000e+03
2.043000000000000000e+03
2.041000000000000000e+03
2.041000000000000000e+03
2.036000000000000000e+03
2.031000000000000000e+03
2.026000000000000000e+03
2.022000000000000000e+03
2.021000000000000000e+03
2.021000000000000000e+03
2.020000000000000000e+03
2.019000000000000000e+03
2.019000000000000000e+03
2.021000000000000000e+03
2.027000000000000000e+03
2.031000000000000000e+03
2.035000000000000000e+03
2.040000000000000000e+03
2.043000000000000000e+03
2.044000000000000000e+03
2.046000000000000000e+03
2.048000000000000000e+03
2.046000000000000000e+03
2.042000000000000000e+03
2.041000000000000000e+03
2.036000000000000000e+03
2.033000000000000000e+03
2.029000000000000000e+03
2.027000000000000000e+03
2.025000000000000000e+03
2.023000000000000000e+03
2.023000000000000000e+03
2.023000000000000000e+03
2.025000000000000000e+03
2.029000000000000000e+03
2.035000000000000000e+03
2.039000000000000000e+03
2.041000000000000000e+03
2.045000000000000000e+03
2.047000000000000000e+03
2.049000000000000000e+03
2.049000000000000000e+03
2.047000000000000000e+03
2.044000000000000000e+03
2.041000000000000000e+03
2.037000000000000000e+03
2.033000000000000000e+03
2.029000000000000000e+03
2.027000000000000000e+03
2.026000000000000000e+03
2.027000000000000000e+03
2.025000000000000000e+03
2.025000000000000000e+03
2.027000000000000000e+03
2.031000000000000000e+03
2.036000000000000000e+03
2.041000000000000000e+03
2.043000000000000000e+03
2.047000000000000000e+03
2.049000000000000000e+03
2.051000000000000000e+03
2.050000000000000000e+03
2.050000000000000000e+03
2.048000000000000000e+03
2.044000000000000000e+03
2.039000000000000000e+03
2.034000000000000000e+03
2.030000000000000000e+03
2.027000000000000000e+03
2.027000000000000000e+03
2.025000000000000000e+03
2.025000000000000000e+03
2.025000000000000000e+03
2.028000000000000000e+03
2.031000000000000000e+03
2.036000000000000000e+03
2.040000000000000000e+03
2.042000000000000000e+03
2.045000000000000000e+03
2.049000000000000000e+03
2.049000000000000000e+03
2.050000000000000000e+03
2.048000000000000000e+03
2.046000000000000000e+03
2.044000000000000000e+03
2.039000000000000000e+03
2.035000000000000000e+03
2.030000000000000000e+03
2.030000000000000000e+03
2.029000000000000000e+03
2.029000000000000000e+03
2.027000000000000000e+03
2.028000000000000000e+03
2.031000000000000000e+03
2.035000000000000000e+03
2.039000000000000000e+03
2.044000000000000000e+03
2.048000000000000000e+03
2.050000000000000000e+03
2.053000000000000000e+03
2.054000000000000000e+03
2.054000000000000000e+03
2.053000000000000000e+03
2.051000000000000000e+03
2.048000000000000000e+03
2.042000000000000000e+03
2.037000000000000000e+03
2.033000000000000000e+03
2.031000000000000000e+03
2.030000000000000000e+03
2.029000000000000000e+03
2.027000000000000000e+03
2.028000000000000000e+03
2.031000000000000000e+03
2.034000000000000000e+03
2.040000000000000000e+03
2.043000000000000000e+03
2.049000000000000000e+03
2.053000000000000000e+03
2.055000000000000000e+03
2.056000000000000000e+03
2.056000000000000000e+03
2.053000000000000000e+03
2.051000000000000000e+03
2.049000000000000000e+03
2.043000000000000000e+03
2.039000000000000000e+03
2.035000000000000000e+03
2.033000000000000000e+03
2.031000000000000000e+03
2.031000000000000000e+03
2.029000000000000000e+03
2.030000000000000000e+03
2.033000000000000000e+03
2.038000000000000000e+03
2.043000000000000000e+03
2.048000000000000000e+03
2.050000000000000000e+03
2.054000000000000000e+03
2.058000000000000000e+03
2.057000000000000000e+03
2.057000000000000000e+03
2.056000000000000000e+03
2.052000000000000000e+03
2.051000000000000000e+03
2.046000000000000000e+03
2.041000000000000000e+03
2.037000000000000000e+03
2.035000000000000000e+03
2.035000000000000000e+03
2.033000000000000000e+03
2.031000000000000000e+03
2.031000000000000000e+03
2.035000000000000000e+03
2.039000000000000000e+03
2.044000000000000000e+03
2.048000000000000000e+03
2.051000000000000000e+03
2.054000000000000000e+03
2.057000000000000000e+03
2.058000000000000000e+03
2.057000000000000000e+03
2.057000000000000000e+03
2.055000000000000000e+03
2.051000000000000000e+03
2.048000000000000000e+03
2.042000000000000000e+03
2.039000000000000000e+03
2.039000000000000000e+03
2.037000000000000000e+03
2.037000000000000000e+03
2.035000000000000000e+03
2.037000000000000000e+03
2.040000000000000000e+03
2.045000000000000000e+03
2.049000000000000000e+03
2.054000000000000000e+03
2.057000000000000000e+03
2.060000000000000000e+03
2.062000000000000000e+03
2.063000000000000000e+03
2.062000000000000000e+03
2.060000000000000000e+03
2.058000000000000000e+03
2.056000000000000000e+03
2.051000000000000000e+03
2.045000000000000000e+03
2.040000000000000000e+03
2.040000000000000000e+03
2.038000000000000000e+03
2.036000000000000000e+03
2.036000000000000000e+03
2.037000000000000000e+03
2.041000000000000000e+03
2.046000000000000000e+03
2.050000000000000000e+03
2.054000000000000000e+03
2.058000000000000000e+03
2.062000000000000000e+03
2.062000000000000000e+03
2.064000000000000000e+03
2.063000000000000000e+03
2.061000000000000000e+03
2.060000000000000000e+03
2.056000000000000000e+03
2.053000000000000000e+03
2.048000000000000000e+03
2.044000000000000000e+03
2.041000000000000000e+03
2.041000000000000000e+03
2.040000000000000000e+03
2.039000000000000000e+03
2.039000000000000000e+03
2.043000000000000000e+03
2.047000000000000000e+03
2.052000000000000000e+03
2.056000000000000000e+03
2.060000000000000000e+03
2.064000000000000000e+03
2.065000000000000000e+03
2.067000000000000000e+03
2.066000000000000000e+03
2.063000000000000000e+03
2.062000000000000000e+03
2.059000000000000000e+03
2.054000000000000000e+03
2.048000000000000000e+03
2.044000000000000000e+03
2.044000000000000000e+03
2.042000000000000000e+03
2.040000000000000000e+03
2.040000000000000000e+03
2.041000000000000000e+03
2.047000000000000000e+03
2.050000000000000000e+03
2.056000000000000000e+03
2.060000000000000000e+03
2.063000000000000000e+03
2.068000000000000000e+03
2.070000000000000000e+03
2.071000000000000000e+03
2.070000000000000000e+03
2.069000000000000000e+03
2.067000000000000000e+03
2.063000000000000000e+03
2.057000000000000000e+03
2.053000000000000000e+03
2.048000000000000000e+03
2.045000000000000000e+03
2.045000000000000000e+03
2.045000000000000000e+03
2.045000000000000000e+03
2.045000000000000000e+03
2.049000000000000000e+03
2.053000000000000000e+03
2.057000000000000000e+03
2.060000000000000000e+03
2.064000000000000000e+03
2.068000000000000000e+03
2.069000000000000000e+03
2.071000000000000000e+03
2.070000000000000000e+03
2.067000000000000000e+03
2.065000000000000000e+03
2.062000000000000000e+03
2.058000000000000000e+03
2.052000000000000000e+03
2.048000000000000000e+03
2.046000000000000000e+03
2.043000000000000000e+03
2.042000000000000000e+03
2.041000000000000000e+03
2.041000000000000000e+03
2.046000000000000000e+03
2.050000000000000000e+03
2.055000000000000000e+03
2.059000000000000000e+03
2.062000000000000000e+03
2.066000000000000000e+03
2.067000000000000000e+03
2.068000000000000000e+03
2.066000000000000000e+03
2.065000000000000000e+03
2.063000000000000000e+03
2.058000000000000000e+03
2.053000000000000000e+03
2.048000000000000000e+03
2.043000000000000000e+03
2.042000000000000000e+03
2.041000000000000000e+03
2.040000000000000000e+03
2.040000000000000000e+03
2.042000000000000000e+03
2.047000000000000000e+03
2.050000000000000000e+03
2.055000000000000000e+03
2.060000000000000000e+03
2.062000000000000000e+03
2.066000000000000000e+03
2.068000000000000000e+03
2.069000000000000000e+03
2.068000000000000000e+03
2.067000000000000000e+03
2.065000000000000000e+03
2.061000000000000000e+03
2.058000000000000000e+03
2.053000000000000000e+03
2.050000000000000000e+03
2.050000000000000000e+03
2.048000000000000000e+03
2.048000000000000000e+03
2.048000000000000000e+03
2.049000000000000000e+03
2.054000000000000000e+03
2.058000000000000000e+03
2.063000000000000000e+03
2.067000000000000000e+03
2.069000000000000000e+03
2.073000000000000000e+03
2.077000000000000000e+03
2.078000000000000000e+03
2.076000000000000000e+03
2.075000000000000000e+03
2.074000000000000000e+03
2.070000000000000000e+03
2.065000000000000000e+03
2.059000000000000000e+03
2.055000000000000000e+03
2.055000000000000000e+03
2.052000000000000000e+03
2.051000000000000000e+03
2.050000000000000000e+03
2.051000000000000000e+03
2.056000000000000000e+03
2.060000000000000000e+03
2.065000000000000000e+03
2.069000000000000000e+03
2.072000000000000000e+03
2.076000000000000000e+03
2.077000000000000000e+03
2.077000000000000000e+03
2.075000000000000000e+03
2.073000000000000000e+03
2.070000000000000000e+03
2.068000000000000000e+03
2.062000000000000000e+03
2.056000000000000000e+03
2.053000000000000000e+03
2.053000000000000000e+03
2.051000000000000000e+03
2.050000000000000000e+03
2.049000000000000000e+03
2.049000000000000000e+03
2.053000000000000000e+03
2.056000000000000000e+03
2.061000000000000000e+03
2.063000000000000000e+03
2.066000000000000000e+03
2.069000000000000000e+03
2.072000000000000000e+03
2.072000000000000000e+03
2.069000000000000000e+03
2.067000000000000000e+03
2.065000000000000000e+03
2.062000000000000000e+03
2.056000000000000000e+03
2.051000000000000000e+03
2.047000000000000000e+03
2.046000000000000000e+03
2.046000000000000000e+03
2.045000000000000000e+03
2.044000000000000000e+03
2.044000000000000000e+03
2.047000000000000000e+03
2.052000000000000000e+03
2.057000000000000000e+03
2.060000000000000000e+03
2.063000000000000000e+03
2.066000000000000000e+03
2.068000000000000000e+03
2.069000000000000000e+03
2.068000000000000000e+03
2.066000000000000000e+03
2.064000000000000000e+03
2.060000000000000000e+03
2.055000000000000000e+03
2.051000000000000000e+03
2.047000000000000000e+03
2.045000000000000000e+03
2.044000000000000000e+03
2.043000000000000000e+03
2.041000000000000000e+03
2.041000000000000000e+03
2.047000000000000000e+03
2.051000000000000000e+03
2.056000000000000000e+03
2.060000000000000000e+03
2.064000000000000000e+03
2.066000000000000000e+03
2.070000000000000000e+03
2.070000000000000000e+03
2.070000000000000000e+03
2.068000000000000000e+03
2.066000000000000000e+03
2.062000000000000000e+03
2.057000000000000000e+03
2.053000000000000000e+03
2.050000000000000000e+03
2.049000000000000000e+03
2.047000000000000000e+03
2.044000000000000000e+03
2.044000000000000000e+03
2.044000000000000000e+03
2.046000000000000000e+03
2.051000000000000000e+03
2.055000000000000000e+03
2.058000000000000000e+03
2.061000000000000000e+03
2.066000000000000000e+03
2.069000000000000000e+03
2.069000000000000000e+03
2.068000000000000000e+03
2.067000000000000000e+03
2.065000000000000000e+03
2.061000000000000000e+03
2.054000000000000000e+03
2.050000000000000000e+03
2.045000000000000000e+03
2.043000000000000000e+03
2.044000000000000000e+03
2.042000000000000000e+03
2.042000000000000000e+03
2.042000000000000000e+03
2.048000000000000000e+03
2.051000000000000000e+03
2.055000000000000000e+03
2.059000000000000000e+03
2.063000000000000000e+03
2.066000000000000000e+03
2.067000000000000000e+03
2.067000000000000000e+03
2.066000000000000000e+03
2.064000000000000000e+03
2.061000000000000000e+03
2.053000000000000000e+03
2.046000000000000000e+03
2.038000000000000000e+03
2.030000000000000000e+03
2.024000000000000000e+03
2.018000000000000000e+03
2.011000000000000000e+03
2.005000000000000000e+03
2.002000000000000000e+03
2.001000000000000000e+03
2.004000000000000000e+03
2.008000000000000000e+03
2.012000000000000000e+03
2.017000000000000000e+03
2.023000000000000000e+03
2.028000000000000000e+03
2.033000000000000000e+03
2.033000000000000000e+03
2.035000000000000000e+03
2.033000000000000000e+03
2.031000000000000000e+03
2.028000000000000000e+03
2.028000000000000000e+03
2.036000000000000000e+03
2.052000000000000000e+03
2.078000000000000000e+03
2.107000000000000000e+03
2.139000000000000000e+03
2.174000000000000000e+03
2.209000000000000000e+03
2.243000000000000000e+03
2.273000000000000000e+03
2.299000000000000000e+03
2.321000000000000000e+03
2.340000000000000000e+03
2.358000000000000000e+03
2.373000000000000000e+03
2.388000000000000000e+03
2.402000000000000000e+03
2.416000000000000000e+03
2.430000000000000000e+03
2.441000000000000000e+03
2.450000000000000000e+03
2.461000000000000000e+03
2.469000000000000000e+03
2.476000000000000000e+03
2.479000000000000000e+03
2.476000000000000000e+03
2.467000000000000000e+03
2.450000000000000000e+03
2.426000000000000000e+03
2.395000000000000000e+03
2.357000000000000000e+03
2.318000000000000000e+03
2.279000000000000000e+03
2.237000000000000000e+03
2.197000000000000000e+03
2.160000000000000000e+03
2.130000000000000000e+03
2.108000000000000000e+03
2.090000000000000000e+03
2.075000000000000000e+03
2.064000000000000000e+03
2.056000000000000000e+03
2.052000000000000000e+03
2.048000000000000000e+03
2.044000000000000000e+03
2.038000000000000000e+03
2.037000000000000000e+03
2.039000000000000000e+03
2.040000000000000000e+03
2.043000000000000000e+03
2.044000000000000000e+03
2.046000000000000000e+03
2.048000000000000000e+03
2.047000000000000000e+03
2.045000000000000000e+03
2.043000000000000000e+03
2.038000000000000000e+03
2.035000000000000000e+03
2.028000000000000000e+03
2.022000000000000000e+03
2.017000000000000000e+03
2.012000000000000000e+03
2.008000000000000000e+03
2.006000000000000000e+03
2.004000000000000000e+03
2.002000000000000000e+03
2.002000000000000000e+03
2.005000000000000000e+03
2.008000000000000000e+03
2.013000000000000000e+03
2.017000000000000000e+03
2.020000000000000000e+03
2.021000000000000000e+03
2.025000000000000000e+03
2.025000000000000000e+03
2.023000000000000000e+03
2.022000000000000000e+03
2.021000000000000000e+03
2.015000000000000000e+03
2.011000000000000000e+03
2.005000000000000000e+03
2.002000000000000000e+03
2.001000000000000000e+03
1.999000000000000000e+03
1.998000000000000000e+03
1.998000000000000000e+03
1.999000000000000000e+03
2.004000000000000000e+03
2.008000000000000000e+03
2.013000000000000000e+03
2.017000000000000000e+03
2.021000000000000000e+03
2.025000000000000000e+03
2.027000000000000000e+03
2.028000000000000000e+03
2.027000000000000000e+03
2.025000000000000000e+03
2.023000000000000000e+03
2.017000000000000000e+03
2.012000000000000000e+03
2.008000000000000000e+03
2.005000000000000000e+03
2.004000000000000000e+03
2.003000000000000000e+03
2.001000000000000000e+03
2.000000000000000000e+03
2.001000000000000000e+03
2.006000000000000000e+03
2.009000000000000000e+03
2.014000000000000000e+03
2.018000000000000000e+03
2.022000000000000000e+03
2.027000000000000000e+03
2.028000000000000000e+03
2.029000000000000000e+03
2.028000000000000000e+03
2.026000000000000000e+03
2.025000000000000000e+03
2.019000000000000000e+03
2.015000000000000000e+03
2.011000000000000000e+03
2.007000000000000000e+03
2.007000000000000000e+03
2.005000000000000000e+03
2.005000000000000000e+03
2.005000000000000000e+03
2.006000000000000000e+03
2.013000000000000000e+03
2.016000000000000000e+03
2.020000000000000000e+03
2.026000000000000000e+03
2.030000000000000000e+03
2.035000000000000000e+03
2.036000000000000000e+03
2.036000000000000000e+03
2.035000000000000000e+03
2.035000000000000000e+03
2.033000000000000000e+03
2.028000000000000000e+03
2.024000000000000000e+03
2.018000000000000000e+03
2.016000000000000000e+03
2.014000000000000000e+03
2.013000000000000000e+03
2.012000000000000000e+03
2.012000000000000000e+03
2.013000000000000000e+03
2.018000000000000000e+03
2.023000000000000000e+03
2.027000000000000000e+03
2.031000000000000000e+03
2.037000000000000000e+03
2.039000000000000000e+03
2.042000000000000000e+03
2.043000000000000000e+03
2.042000000000000000e+03
2.041000000000000000e+03
2.041000000000000000e+03
2.036000000000000000e+03
2.031000000000000000e+03
2.025000000000000000e+03
2.024000000000000000e+03
2.024000000000000000e+03
2.022000000000000000e+03
2.021000000000000000e+03
2.022000000000000000e+03
2.024000000000000000e+03
2.028000000000000000e+03
2.033000000000000000e+03
2.038000000000000000e+03
2.043000000000000000e+03
2.048000000000000000e+03
2.054000000000000000e+03
2.054000000000000000e+03
2.054000000000000000e+03
2.054000000000000000e+03
2.052000000000000000e+03
2.050000000000000000e+03
2.045000000000000000e+03
2.039000000000000000e+03
2.035000000000000000e+03
2.033000000000000000e+03
2.032000000000000000e+03
2.031000000000000000e+03
2.030000000000000000e+03
2.030000000000000000e+03
2.032000000000000000e+03
2.036000000000000000e+03
2.040000000000000000e+03
2.045000000000000000e+03
2.049000000000000000e+03
2.054000000000000000e+03
2.059000000000000000e+03
2.062000000000000000e+03
2.062000000000000000e+03
2.063000000000000000e+03
2.060000000000000000e+03
2.057000000000000000e+03
2.055000000000000000e+03
2.050000000000000000e+03
2.046000000000000000e+03
2.043000000000000000e+03
2.041000000000000000e+03
2.042000000000000000e+03
2.041000000000000000e+03
2.041000000000000000e+03
2.043000000000000000e+03
2.048000000000000000e+03
2.054000000000000000e+03
2.060000000000000000e+03
2.065000000000000000e+03
2.069000000000000000e+03
2.073000000000000000e+03
2.076000000000000000e+03
2.076000000000000000e+03
2.077000000000000000e+03
2.076000000000000000e+03
2.074000000000000000e+03
2.070000000000000000e+03
2.066000000000000000e+03
2.062000000000000000e+03
2.061000000000000000e+03
2.060000000000000000e+03
2.060000000000000000e+03
2.059000000000000000e+03
2.060000000000000000e+03
2.062000000000000000e+03
2.066000000000000000e+03
2.073000000000000000e+03
2.078000000000000000e+03
2.083000000000000000e+03
2.087000000000000000e+03
2.091000000000000000e+03
2.094000000000000000e+03
2.096000000000000000e+03
2.095000000000000000e+03
2.094000000000000000e+03
2.091000000000000000e+03
2.089000000000000000e+03
2.084000000000000000e+03
2.078000000000000000e+03
2.077000000000000000e+03
2.077000000000000000e+03
2.076000000000000000e+03
2.076000000000000000e+03
2.075000000000000000e+03
2.078000000000000000e+03
2.083000000000000000e+03
2.088000000000000000e+03
2.092000000000000000e+03
2.097000000000000000e+03
2.102000000000000000e+03
2.105000000000000000e+03
2.107000000000000000e+03
2.106000000000000000e+03
2.106000000000000000e+03
2.107000000000000000e+03
2.104000000000000000e+03
2.098000000000000000e+03
2.093000000000000000e+03
2.089000000000000000e+03
2.086000000000000000e+03
2.083000000000000000e+03
2.083000000000000000e+03
2.081000000000000000e+03
2.082000000000000000e+03
2.085000000000000000e+03
2.090000000000000000e+03
2.095000000000000000e+03
2.099000000000000000e+03
2.103000000000000000e+03
2.107000000000000000e+03
2.110000000000000000e+03
2.112000000000000000e+03
2.112000000000000000e+03
2.110000000000000000e+03
2.107000000000000000e+03
2.103000000000000000e+03
2.099000000000000000e+03
2.094000000000000000e+03
2.089000000000000000e+03
2.085000000000000000e+03
2.083000000000000000e+03
2.079000000000000000e+03
2.077000000000000000e+03
2.075000000000000000e+03
2.077000000000000000e+03
2.079000000000000000e+03
2.083000000000000000e+03
2.087000000000000000e+03
2.088000000000000000e+03
2.092000000000000000e+03
2.094000000000000000e+03
2.094000000000000000e+03
2.093000000000000000e+03
2.090000000000000000e+03
2.086000000000000000e+03
2.083000000000000000e+03
2.076000000000000000e+03
2.069000000000000000e+03
2.062000000000000000e+03
2.057000000000000000e+03
2.055000000000000000e+03
2.052000000000000000e+03
2.051000000000000000e+03
2.047000000000000000e+03
2.047000000000000000e+03
2.049000000000000000e+03
2.050000000000000000e+03
2.054000000000000000e+03
2.057000000000000000e+03
2.059000000000000000e+03
2.060000000000000000e+03
2.060000000000000000e+03
2.057000000000000000e+03
2.055000000000000000e+03
2.052000000000000000e+03
2.048000000000000000e+03
2.041000000000000000e+03
2.034000000000000000e+03
2.029000000000000000e+03
2.025000000000000000e+03
2.022000000000000000e+03
2.019000000000000000e+03
2.017000000000000000e+03
2.015000000000000000e+03
2.017000000000000000e+03
2.018000000000000000e+03
2.021000000000000000e+03
2.024000000000000000e+03
2.027000000000000000e+03
2.030000000000000000e+03
2.032000000000000000e+03
2.031000000000000000e+03
2.031000000000000000e+03
2.029000000000000000e+03
2.027000000000000000e+03
2.023000000000000000e+03
2.017000000000000000e+03
2.011000000000000000e+03
2.005000000000000000e+03
2.001000000000000000e+03
1.999000000000000000e+03
1.997000000000000000e+03
1.996000000000000000e+03
1.996000000000000000e+03
1.998000000000000000e+03
2.002000000000000000e+03
2.005000000000000000e+03
2.010000000000000000e+03
2.013000000000000000e+03
2.017000000000000000e+03
2.019000000000000000e+03
2.021000000000000000e+03
2.021000000000000000e+03
2.020000000000000000e+03
2.019000000000000000e+03
2.015000000000000000e+03
2.010000000000000000e+03
2.005000000000000000e+03
2.000000000000000000e+03
1.998000000000000000e+03
1.996000000000000000e+03
1.994000000000000000e+03
1.993000000000000000e+03
1.992000000000000000e+03
1.994000000000000000e+03
1.997000000000000000e+03
2.003000000000000000e+03
2.009000000000000000e+03
2.012000000000000000e+03
2.016000000000000000e+03
2.020000000000000000e+03
2.022000000000000000e+03
2.023000000000000000e+03
2.021000000000000000e+03
2.021000000000000000e+03
2.017000000000000000e+03
2.013000000000000000e+03
2.009000000000000000e+03
2.005000000000000000e+03
2.002000000000000000e+03
2.001000000000000000e+03
1.999000000000000000e+03
1.998000000000000000e+03
1.998000000000000000e+03
2.001000000000000000e+03
2.006000000000000000e+03
2.010000000000000000e+03
2.015000000000000000e+03
2.019000000000000000e+03
2.024000000000000000e+03
2.027000000000000000e+03
2.030000000000000000e+03
2.030000000000000000e+03
2.028000000000000000e+03
2.027000000000000000e+03
2.023000000000000000e+03
2.018000000000000000e+03
2.011000000000000000e+03
2.008000000000000000e+03
2.006000000000000000e+03
2.003000000000000000e+03
2.004000000000000000e+03
2.002000000000000000e+03
2.001000000000000000e+03
2.004000000000000000e+03
2.008000000000000000e+03
2.013000000000000000e+03
2.016000000000000000e+03
2.023000000000000000e+03
2.028000000000000000e+03
2.032000000000000000e+03
2.033000000000000000e+03
2.033000000000000000e+03
2.034000000000000000e+03
2.033000000000000000e+03
2.030000000000000000e+03
2.025000000000000000e+03
2.019000000000000000e+03
2.015000000000000000e+03
2.013000000000000000e+03
2.011000000000000000e+03
2.011000000000000000e+03
2.009000000000000000e+03
2.010000000000000000e+03
2.013000000000000000e+03
2.017000000000000000e+03
2.022000000000000000e+03
2.027000000000000000e+03
2.031000000000000000e+03
2.035000000000000000e+03
2.039000000000000000e+03
2.041000000000000000e+03
2.041000000000000000e+03
2.040000000000000000e+03
2.039000000000000000e+03
2.036000000000000000e+03
2.031000000000000000e+03
2.026000000000000000e+03
2.021000000000000000e+03
2.019000000000000000e+03
2.016000000000000000e+03
2.015000000000000000e+03
2.011000000000000000e+03
2.013000000000000000e+03
2.015000000000000000e+03
2.018000000000000000e+03
2.024000000000000000e+03
2.030000000000000000e+03
2.035000000000000000e+03
2.040000000000000000e+03
2.043000000000000000e+03
2.044000000000000000e+03
2.043000000000000000e+03
2.043000000000000000e+03
2.040000000000000000e+03
2.039000000000000000e+03
2.034000000000000000e+03
2.028000000000000000e+03
2.022000000000000000e+03
2.020000000000000000e+03
2.018000000000000000e+03
2.017000000000000000e+03
2.017000000000000000e+03
2.017000000000000000e+03
2.018000000000000000e+03
2.024000000000000000e+03
2.028000000000000000e+03
2.031000000000000000e+03
2.037000000000000000e+03
2.042000000000000000e+03
2.045000000000000000e+03
2.046000000000000000e+03
2.047000000000000000e+03
2.045000000000000000e+03
2.044000000000000000e+03
2.040000000000000000e+03
2.036000000000000000e+03
2.030000000000000000e+03
2.026000000000000000e+03
2.024000000000000000e+03
2.022000000000000000e+03
2.022000000000000000e+03
2.020000000000000000e+03
2.018000000000000000e+03
2.020000000000000000e+03
2.023000000000000000e+03
2.027000000000000000e+03
2.032000000000000000e+03
2.037000000000000000e+03
2.043000000000000000e+03
2.046000000000000000e+03
2.048000000000000000e+03
2.048000000000000000e+03
2.046000000000000000e+03
2.045000000000000000e+03
2.043000000000000000e+03
2.038000000000000000e+03
2.033000000000000000e+03
2.028000000000000000e+03
2.024000000000000000e+03
2.024000000000000000e+03
2.023000000000000000e+03
2.021000000000000000e+03
2.022000000000000000e+03
2.024000000000000000e+03
2.029000000000000000e+03
2.034000000000000000e+03
2.038000000000000000e+03
2.042000000000000000e+03
2.047000000000000000e+03
2.049000000000000000e+03
2.051000000000000000e+03
2.051000000000000000e+03
2.049000000000000000e+03
2.049000000000000000e+03
2.044000000000000000e+03
2.041000000000000000e+03
2.036000000000000000e+03
2.031000000000000000e+03
2.029000000000000000e+03
2.027000000000000000e+03
2.025000000000000000e+03
2.023000000000000000e+03
2.023000000000000000e+03
2.026000000000000000e+03
2.030000000000000000e+03
2.035000000000000000e+03
2.040000000000000000e+03
2.045000000000000000e+03
2.049000000000000000e+03
2.053000000000000000e+03
2.055000000000000000e+03
2.054000000000000000e+03
2.053000000000000000e+03
2.052000000000000000e+03
2.048000000000000000e+03
2.044000000000000000e+03
2.037000000000000000e+03
2.032000000000000000e+03
2.028000000000000000e+03
2.027000000000000000e+03
2.026000000000000000e+03
2.025000000000000000e+03
2.025000000000000000e+03
2.028000000000000000e+03
2.032000000000000000e+03
2.037000000000000000e+03
2.041000000000000000e+03
2.048000000000000000e+03
2.052000000000000000e+03
2.055000000000000000e+03
2.056000000000000000e+03
2.055000000000000000e+03
2.054000000000000000e+03
2.053000000000000000e+03
2.050000000000000000e+03
2.045000000000000000e+03
2.038000000000000000e+03
2.034000000000000000e+03
2.032000000000000000e+03
2.032000000000000000e+03
2.030000000000000000e+03
2.028000000000000000e+03
2.028000000000000000e+03
2.030000000000000000e+03
2.035000000000000000e+03
2.040000000000000000e+03
2.045000000000000000e+03
2.050000000000000000e+03
2.054000000000000000e+03
2.059000000000000000e+03
2.060000000000000000e+03
2.060000000000000000e+03
2.059000000000000000e+03
2.057000000000000000e+03
2.056000000000000000e+03
2.050000000000000000e+03
2.045000000000000000e+03
2.039000000000000000e+03
2.037000000000000000e+03
2.036000000000000000e+03
2.035000000000000000e+03
2.034000000000000000e+03
2.034000000000000000e+03
2.036000000000000000e+03
2.041000000000000000e+03
2.045000000000000000e+03
2.049000000000000000e+03
2.054000000000000000e+03
2.059000000000000000e+03
2.062000000000000000e+03
2.063000000000000000e+03
2.063000000000000000e+03
2.062000000000000000e+03
2.059000000000000000e+03
2.056000000000000000e+03
2.052000000000000000e+03
2.047000000000000000e+03
2.041000000000000000e+03
2.038000000000000000e+03
2.038000000000000000e+03
2.037000000000000000e+03
2.036000000000000000e+03
2.036000000000000000e+03
2.040000000000000000e+03
2.043000000000000000e+03
2.048000000000000000e+03
2.052000000000000000e+03
2.056000000000000000e+03
2.060000000000000000e+03
2.063000000000000000e+03
2.065000000000000000e+03
2.064000000000000000e+03
2.063000000000000000e+03
2.063000000000000000e+03
2.059000000000000000e+03
2.054000000000000000e+03
2.046000000000000000e+03
2.042000000000000000e+03
2.041000000000000000e+03
2.039000000000000000e+03
2.037000000000000000e+03
2.036000000000000000e+03
2.036000000000000000e+03
2.040000000000000000e+03
2.043000000000000000e+03
2.047000000000000000e+03
2.053000000000000000e+03
2.057000000000000000e+03
2.062000000000000000e+03
2.065000000000000000e+03
2.066000000000000000e+03
2.066000000000000000e+03
2.064000000000000000e+03
2.063000000000000000e+03
2.059000000000000000e+03
2.054000000000000000e+03
2.048000000000000000e+03
2.043000000000000000e+03
2.040000000000000000e+03
2.036000000000000000e+03
2.036000000000000000e+03
2.035000000000000000e+03
2.034000000000000000e+03
2.038000000000000000e+03
2.042000000000000000e+03
2.048000000000000000e+03
2.052000000000000000e+03
2.056000000000000000e+03
2.063000000000000000e+03
2.064000000000000000e+03
2.066000000000000000e+03
2.065000000000000000e+03
2.063000000000000000e+03
2.064000000000000000e+03
2.059000000000000000e+03
2.054000000000000000e+03
2.047000000000000000e+03
2.041000000000000000e+03
2.039000000000000000e+03
2.039000000000000000e+03
2.037000000000000000e+03
2.035000000000000000e+03
2.034000000000000000e+03
2.037000000000000000e+03
2.040000000000000000e+03
2.045000000000000000e+03
2.049000000000000000e+03
2.053000000000000000e+03
2.059000000000000000e+03
2.063000000000000000e+03
2.064000000000000000e+03
2.064000000000000000e+03
2.063000000000000000e+03
2.061000000000000000e+03
2.056000000000000000e+03
2.051000000000000000e+03
2.044000000000000000e+03
2.039000000000000000e+03
2.038000000000000000e+03
2.035000000000000000e+03
2.034000000000000000e+03
2.032000000000000000e+03
2.033000000000000000e+03
2.036000000000000000e+03
2.041000000000000000e+03
2.046000000000000000e+03
2.052000000000000000e+03
2.056000000000000000e+03
2.061000000000000000e+03
2.063000000000000000e+03
2.064000000000000000e+03
2.064000000000000000e+03
2.062000000000000000e+03
2.061000000000000000e+03
2.058000000000000000e+03
2.054000000000000000e+03
2.049000000000000000e+03
2.044000000000000000e+03
2.042000000000000000e+03
2.039000000000000000e+03
2.038000000000000000e+03
2.036000000000000000e+03
2.037000000000000000e+03
2.041000000000000000e+03
2.043000000000000000e+03
2.048000000000000000e+03
2.051000000000000000e+03
2.057000000000000000e+03
2.060000000000000000e+03
2.063000000000000000e+03
2.063000000000000000e+03
2.063000000000000000e+03
2.063000000000000000e+03
2.063000000000000000e+03
2.059000000000000000e+03
2.054000000000000000e+03
2.049000000000000000e+03
2.043000000000000000e+03
2.040000000000000000e+03
2.040000000000000000e+03
2.038000000000000000e+03
2.037000000000000000e+03
2.036000000000000000e+03
2.040000000000000000e+03
2.044000000000000000e+03
2.049000000000000000e+03
2.053000000000000000e+03
2.058000000000000000e+03
2.063000000000000000e+03
2.065000000000000000e+03
2.067000000000000000e+03
2.066000000000000000e+03
2.065000000000000000e+03
2.065000000000000000e+03
2.060000000000000000e+03
2.055000000000000000e+03
2.050000000000000000e+03
2.045000000000000000e+03
2.043000000000000000e+03
2.042000000000000000e+03
2.041000000000000000e+03
2.039000000000000000e+03
2.040000000000000000e+03
2.042000000000000000e+03
2.047000000000000000e+03
2.051000000000000000e+03
2.055000000000000000e+03
2.059000000000000000e+03
2.064000000000000000e+03
2.065000000000000000e+03
2.067000000000000000e+03
2.066000000000000000e+03
2.066000000000000000e+03
2.063000000000000000e+03
2.060000000000000000e+03
2.055000000000000000e+03
2.049000000000000000e+03
2.045000000000000000e+03
2.042000000000000000e+03
2.041000000000000000e+03
2.041000000000000000e+03
2.039000000000000000e+03
2.041000000000000000e+03
2.043000000000000000e+03
2.046000000000000000e+03
2.052000000000000000e+03
2.056000000000000000e+03
2.060000000000000000e+03
2.065000000000000000e+03
2.067000000000000000e+03
2.068000000000000000e+03
2.068000000000000000e+03
2.067000000000000000e+03
2.065000000000000000e+03
2.063000000000000000e+03
2.058000000000000000e+03
2.051000000000000000e+03
2.046000000000000000e+03
2.045000000000000000e+03
2.042000000000000000e+03
2.040000000000000000e+03
2.038000000000000000e+03
2.037000000000000000e+03
2.040000000000000000e+03
2.042000000000000000e+03
2.048000000000000000e+03
2.053000000000000000e+03
2.058000000000000000e+03
2.063000000000000000e+03
2.067000000000000000e+03
2.067000000000000000e+03
2.067000000000000000e+03
2.067000000000000000e+03
2.063000000000000000e+03
2.060000000000000000e+03
2.056000000000000000e+03
2.050000000000000000e+03
2.046000000000000000e+03
2.044000000000000000e+03
2.043000000000000000e+03
2.041000000000000000e+03
2.040000000000000000e+03
2.042000000000000000e+03
2.044000000000000000e+03
2.049000000000000000e+03
2.053000000000000000e+03
2.057000000000000000e+03
2.060000000000000000e+03
2.065000000000000000e+03
2.067000000000000000e+03
2.068000000000000000e+03
2.066000000000000000e+03
2.066000000000000000e+03
2.065000000000000000e+03
2.062000000000000000e+03
2.058000000000000000e+03
2.053000000000000000e+03
2.049000000000000000e+03
2.045000000000000000e+03
2.043000000000000000e+03
2.044000000000000000e+03
2.041000000000000000e+03
2.041000000000000000e+03
2.044000000000000000e+03
2.049000000000000000e+03
2.054000000000000000e+03
2.058000000000000000e+03
2.063000000000000000e+03
2.068000000000000000e+03
2.069000000000000000e+03
2.070000000000000000e+03
2.069000000000000000e+03
2.068000000000000000e+03
2.066000000000000000e+03
2.062000000000000000e+03
2.056000000000000000e+03
2.050000000000000000e+03
2.045000000000000000e+03
2.042000000000000000e+03
2.040000000000000000e+03
2.038000000000000000e+03
2.037000000000000000e+03
2.038000000000000000e+03
2.041000000000000000e+03
2.044000000000000000e+03
2.049000000000000000e+03
2.053000000000000000e+03
2.057000000000000000e+03
2.061000000000000000e+03
2.065000000000000000e+03
2.066000000000000000e+03
2.066000000000000000e+03
2.065000000000000000e+03
2.063000000000000000e+03
2.061000000000000000e+03
2.057000000000000000e+03
2.050000000000000000e+03
2.046000000000000000e+03
2.044000000000000000e+03
2.041000000000000000e+03
2.040000000000000000e+03
2.039000000000000000e+03
2.041000000000000000e+03
2.044000000000000000e+03
2.051000000000000000e+03
2.056000000000000000e+03
2.062000000000000000e+03
2.068000000000000000e+03
2.074000000000000000e+03
2.075000000000000000e+03
2.078000000000000000e+03
2.077000000000000000e+03
2.077000000000000000e+03
2.076000000000000000e+03
2.071000000000000000e+03
2.065000000000000000e+03
2.060000000000000000e+03
2.056000000000000000e+03
2.054000000000000000e+03
2.054000000000000000e+03
2.054000000000000000e+03
2.051000000000000000e+03
2.052000000000000000e+03
2.055000000000000000e+03
2.059000000000000000e+03
2.063000000000000000e+03
2.067000000000000000e+03
2.072000000000000000e+03
2.076000000000000000e+03
2.078000000000000000e+03
2.079000000000000000e+03
2.079000000000000000e+03
2.077000000000000000e+03
2.074000000000000000e+03
2.071000000000000000e+03
2.065000000000000000e+03
2.059000000000000000e+03
2.054000000000000000e+03
2.052000000000000000e+03
2.050000000000000000e+03
2.050000000000000000e+03
2.048000000000000000e+03
2.047000000000000000e+03
2.051000000000000000e+03
2.053000000000000000e+03
2.058000000000000000e+03
2.061000000000000000e+03
2.065000000000000000e+03
2.071000000000000000e+03
2.071000000000000000e+03
2.071000000000000000e+03
2.071000000000000000e+03
2.069000000000000000e+03
2.067000000000000000e+03
2.061000000000000000e+03
2.055000000000000000e+03
2.049000000000000000e+03
2.045000000000000000e+03
2.042000000000000000e+03
2.041000000000000000e+03
2.039000000000000000e+03
2.039000000000000000e+03
2.041000000000000000e+03
2.042000000000000000e+03
2.048000000000000000e+03
2.051000000000000000e+03
2.055000000000000000e+03
2.061000000000000000e+03
2.066000000000000000e+03
2.068000000000000000e+03
2.070000000000000000e+03
2.069000000000000000e+03
2.068000000000000000e+03
2.067000000000000000e+03
2.064000000000000000e+03
2.057000000000000000e+03
2.051000000000000000e+03
2.048000000000000000e+03
2.046000000000000000e+03
2.042000000000000000e+03
2.041000000000000000e+03
2.040000000000000000e+03
2.041000000000000000e+03
2.043000000000000000e+03
2.046000000000000000e+03
2.051000000000000000e+03
2.056000000000000000e+03
2.060000000000000000e+03
2.065000000000000000e+03
2.067000000000000000e+03
2.068000000000000000e+03
2.069000000000000000e+03
2.070000000000000000e+03
2.068000000000000000e+03
2.064000000000000000e+03
2.058000000000000000e+03
2.053000000000000000e+03
2.049000000000000000e+03
2.045000000000000000e+03
2.045000000000000000e+03
2.044000000000000000e+03
2.042000000000000000e+03
2.042000000000000000e+03
2.045000000000000000e+03
2.049000000000000000e+03
2.054000000000000000e+03
2.058000000000000000e+03
2.063000000000000000e+03
2.068000000000000000e+03
2.069000000000000000e+03
2.070000000000000000e+03
2.068000000000000000e+03
2.069000000000000000e+03
2.067000000000000000e+03
2.063000000000000000e+03
2.057000000000000000e+03
2.051000000000000000e+03
2.047000000000000000e+03
2.046000000000000000e+03
2.044000000000000000e+03
2.042000000000000000e+03
2.040000000000000000e+03
2.042000000000000000e+03
2.045000000000000000e+03
2.050000000000000000e+03
2.054000000000000000e+03
2.058000000000000000e+03
2.062000000000000000e+03
2.066000000000000000e+03
2.070000000000000000e+03
2.071000000000000000e+03
2.069000000000000000e+03
2.068000000000000000e+03
2.067000000000000000e+03
2.061000000000000000e+03
2.057000000000000000e+03
2.052000000000000000e+03
2.048000000000000000e+03
2.045000000000000000e+03
2.043000000000000000e+03
2.041000000000000000e+03
2.039000000000000000e+03
2.040000000000000000e+03
2.041000000000000000e+03
2.044000000000000000e+03
2.046000000000000000e+03
2.048000000000000000e+03
2.049000000000000000e+03
2.048000000000000000e+03
2.045000000000000000e+03
2.040000000000000000e+03
2.035000000000000000e+03
2.029000000000000000e+03
2.023000000000000000e+03
2.016000000000000000e+03
2.011000000000000000e+03
2.004000000000000000e+03
2.001000000000000000e+03
2.000000000000000000e+03
2.001000000000000000e+03
2.002000000000000000e+03
2.003000000000000000e+03
2.008000000000000000e+03
2.014000000000000000e+03
2.019000000000000000e+03
2.026000000000000000e+03
2.033000000000000000e+03
2.045000000000000000e+03
2.062000000000000000e+03
2.084000000000000000e+03
2.111000000000000000e+03
2.141000000000000000e+03
2.173000000000000000e+03
2.205000000000000000e+03
2.234000000000000000e+03
2.257000000000000000e+03
2.277000000000000000e+03
2.296000000000000000e+03
2.312000000000000000e+03
2.329000000000000000e+03
2.343000000000000000e+03
2.355000000000000000e+03
2.371000000000000000e+03
2.389000000000000000e+03
2.410000000000000000e+03
2.429000000000000000e+03
2.450000000000000000e+03
2.469000000000000000e+03
2.485000000000000000e+03
2.495000000000000000e+03
2.502000000000000000e+03
2.503000000000000000e+03
2.499000000000000000e+03
2.482000000000000000e+03
2.455000000000000000e+03
2.420000000000000000e+03
2.377000000000000000e+03
2.332000000000000000e+03
2.286000000000000000e+03
2.238000000000000000e+03
2.196000000000000000e+03
2.157000000000000000e+03
2.125000000000000000e+03
2.103000000000000000e+03
2.089000000000000000e+03
2.080000000000000000e+03
2.076000000000000000e+03
2.076000000000000000e+03
2.076000000000000000e+03
2.075000000000000000e+03
2.073000000000000000e+03
2.069000000000000000e+03
2.065000000000000000e+03
2.059000000000000000e+03
2.054000000000000000e+03
2.046000000000000000e+03
2.039000000000000000e+03
2.033000000000000000e+03
2.029000000000000000e+03
2.023000000000000000e+03
2.019000000000000000e+03
2.015000000000000000e+03
2.015000000000000000e+03
2.015000000000000000e+03
2.016000000000000000e+03
2.019000000000000000e+03
2.023000000000000000e+03
2.026000000000000000e+03
2.029000000000000000e+03
2.030000000000000000e+03
2.029000000000000000e+03
2.028000000000000000e+03
2.027000000000000000e+03
2.022000000000000000e+03
2.018000000000000000e+03
2.011000000000000000e+03
2.006000000000000000e+03
2.001000000000000000e+03
1.997000000000000000e+03
1.995000000000000000e+03
1.993000000000000000e+03
1.993000000000000000e+03
1.993000000000000000e+03
1.995000000000000000e+03
1.999000000000000000e+03
2.003000000000000000e+03
2.007000000000000000e+03
2.012000000000000000e+03
2.017000000000000000e+03
2.019000000000000000e+03
2.020000000000000000e+03
2.019000000000000000e+03
2.019000000000000000e+03
2.017000000000000000e+03
2.012000000000000000e+03
2.008000000000000000e+03
2.003000000000000000e+03
2.000000000000000000e+03
1.997000000000000000e+03
1.995000000000000000e+03
1.993000000000000000e+03
1.994000000000000000e+03
1.996000000000000000e+03
2.000000000000000000e+03
2.003000000000000000e+03
2.007000000000000000e+03
2.012000000000000000e+03
2.017000000000000000e+03
2.022000000000000000e+03
2.024000000000000000e+03
2.025000000000000000e+03
2.024000000000000000e+03
2.023000000000000000e+03
2.020000000000000000e+03
2.015000000000000000e+03
2.011000000000000000e+03
2.007000000000000000e+03
2.004000000000000000e+03
2.002000000000000000e+03
2.001000000000000000e+03
2.001000000000000000e+03
2.001000000000000000e+03
2.002000000000000000e+03
2.005000000000000000e+03
2.009000000000000000e+03
2.013000000000000000e+03
2.017000000000000000e+03
2.025000000000000000e+03
2.028000000000000000e+03
2.034000000000000000e+03
2.035000000000000000e+03
2.035000000000000000e+03
2.034000000000000000e+03
2.032000000000000000e+03
2.027000000000000000e+03
2.021000000000000000e+03
2.017000000000000000e+03
2.013000000000000000e+03
2.012000000000000000e+03
2.012000000000000000e+03
2.010000000000000000e+03
2.010000000000000000e+03
2.012000000000000000e+03
2.015000000000000000e+03
2.018000000000000000e+03
2.024000000000000000e+03
2.029000000000000000e+03
2.035000000000000000e+03
2.039000000000000000e+03
2.041000000000000000e+03
2.042000000000000000e+03
2.042000000000000000e+03
2.040000000000000000e+03
2.039000000000000000e+03
2.035000000000000000e+03
2.028000000000000000e+03
2.024000000000000000e+03
2.020000000000000000e+03
2.018000000000000000e+03
2.017000000000000000e+03
2.017000000000000000e+03
2.017000000000000000e+03
2.018000000000000000e+03
2.020000000000000000e+03
2.025000000000000000e+03
2.029000000000000000e+03
2.034000000000000000e+03
2.040000000000000000e+03
2.044000000000000000e+03
2.047000000000000000e+03
2.048000000000000000e+03
2.048000000000000000e+03
2.046000000000000000e+03
2.046000000000000000e+03
2.042000000000000000e+03
2.037000000000000000e+03
2.033000000000000000e+03
2.031000000000000000e+03
2.029000000000000000e+03
2.028000000000000000e+03
2.026000000000000000e+03
2.024000000000000000e+03
2.026000000000000000e+03
2.028000000000000000e+03
2.034000000000000000e+03
2.040000000000000000e+03
2.045000000000000000e+03
2.052000000000000000e+03
2.056000000000000000e+03
2.059000000000000000e+03
2.061000000000000000e+03
2.060000000000000000e+03
2.060000000000000000e+03
2.057000000000000000e+03
2.054000000000000000e+03
2.048000000000000000e+03
2.043000000000000000e+03
2.040000000000000000e+03
2.040000000000000000e+03
2.037000000000000000e+03
2.035000000000000000e+03
2.035000000000000000e+03
2.036000000000000000e+03
2.041000000000000000e+03
2.045000000000000000e+03
2.050000000000000000e+03
2.055000000000000000e+03
2.062000000000000000e+03
2.065000000000000000e+03
2.067000000000000000e+03
2.068000000000000000e+03
2.069000000000000000e+03
2.069000000000000000e+03
2.067000000000000000e+03
2.064000000000000000e+03
2.057000000000000000e+03
2.053000000000000000e+03
2.051000000000000000e+03
2.048000000000000000e+03
2.048000000000000000e+03
2.048000000000000000e+03
2.048000000000000000e+03
2.050000000000000000e+03
2.054000000000000000e+03
2.057000000000000000e+03
2.062000000000000000e+03
2.067000000000000000e+03
2.072000000000000000e+03
2.077000000000000000e+03
2.080000000000000000e+03
2.081000000000000000e+03
2.082000000000000000e+03
2.082000000000000000e+03
2.080000000000000000e+03
2.077000000000000000e+03
2.072000000000000000e+03
2.067000000000000000e+03
2.065000000000000000e+03
2.062000000000000000e+03
2.061000000000000000e+03
2.061000000000000000e+03
2.061000000000000000e+03
2.063000000000000000e+03
2.068000000000000000e+03
2.073000000000000000e+03
2.078000000000000000e+03
2.082000000000000000e+03
2.088000000000000000e+03
2.092000000000000000e+03
2.096000000000000000e+03
2.096000000000000000e+03
2.096000000000000000e+03
2.096000000000000000e+03
2.093000000000000000e+03
2.090000000000000000e+03
2.085000000000000000e+03
2.082000000000000000e+03
2.079000000000000000e+03
2.078000000000000000e+03
2.077000000000000000e+03
2.076000000000000000e+03
2.076000000000000000e+03
2.079000000000000000e+03
2.083000000000000000e+03
2.087000000000000000e+03
2.092000000000000000e+03
2.096000000000000000e+03
2.102000000000000000e+03
2.106000000000000000e+03
2.108000000000000000e+03
2.108000000000000000e+03
2.107000000000000000e+03
2.108000000000000000e+03
2.105000000000000000e+03
2.102000000000000000e+03
2.097000000000000000e+03
2.092000000000000000e+03
2.090000000000000000e+03
2.086000000000000000e+03
2.086000000000000000e+03
2.084000000000000000e+03
2.083000000000000000e+03
2.084000000000000000e+03
2.086000000000000000e+03
2.091000000000000000e+03
2.094000000000000000e+03
2.099000000000000000e+03
2.103000000000000000e+03
2.107000000000000000e+03
2.108000000000000000e+03
2.108000000000000000e+03
2.107000000000000000e+03
2.106000000000000000e+03
2.103000000000000000e+03
2.097000000000000000e+03
2.089000000000000000e+03
2.083000000000000000e+03
2.080000000000000000e+03
2.077000000000000000e+03
2.074000000000000000e+03
2.072000000000000000e+03
2.069000000000000000e+03
2.068000000000000000e+03
2.070000000000000000e+03
2.073000000000000000e+03
2.075000000000000000e+03
2.078000000000000000e+03
2.082000000000000000e+03
2.083000000000000000e+03
2.086000000000000000e+03
2.084000000000000000e+03
2.082000000000000000e+03
2.079000000000000000e+03
2.075000000000000000e+03
2.069000000000000000e+03
2.061000000000000000e+03
2.054000000000000000e+03
2.049000000000000000e+03
2.045000000000000000e+03
2.041000000000000000e+03
2.038000000000000000e+03
2.033000000000000000e+03
2.035000000000000000e+03
2.036000000000000000e+03
2.039000000000000000e+03
2.041000000000000000e+03
2.045000000000000000e+03
2.048000000000000000e+03
2.050000000000000000e+03
2.051000000000000000e+03
2.050000000000000000e+03
2.048000000000000000e+03
2.045000000000000000e+03
2.042000000000000000e+03
2.036000000000000000e+03
2.030000000000000000e+03
2.023000000000000000e+03
2.020000000000000000e+03
2.015000000000000000e+03
2.012000000000000000e+03
2.009000000000000000e+03
2.007000000000000000e+03
2.008000000000000000e+03
2.011000000000000000e+03
2.013000000000000000e+03
2.017000000000000000e+03
2.021000000000000000e+03
2.026000000000000000e+03
2.028000000000000000e+03
2.029000000000000000e+03
2.029000000000000000e+03
2.028000000000000000e+03
2.027000000000000000e+03
2.023000000000000000e+03
2.018000000000000000e+03
2.012000000000000000e+03
2.007000000000000000e+03
2.005000000000000000e+03
2.001000000000000000e+03
1.999000000000000000e+03
1.997000000000000000e+03
1.996000000000000000e+03
1.998000000000000000e+03
2.000000000000000000e+03
2.004000000000000000e+03
2.008000000000000000e+03
2.012000000000000000e+03
2.017000000000000000e+03
2.021000000000000000e+03
2.022000000000000000e+03
2.022000000000000000e+03
2.023000000000000000e+03
2.023000000000000000e+03
2.019000000000000000e+03
2.016000000000000000e+03
2.011000000000000000e+03
2.006000000000000000e+03
2.004000000000000000e+03
2.001000000000000000e+03
1.999000000000000000e+03
1.998000000000000000e+03
1.997000000000000000e+03
2.001000000000000000e+03
2.004000000000000000e+03
2.008000000000000000e+03
2.011000000000000000e+03
2.015000000000000000e+03
2.020000000000000000e+03
2.023000000000000000e+03
2.025000000000000000e+03
2.027000000000000000e+03
2.025000000000000000e+03
2.025000000000000000e+03
2.022000000000000000e+03
2.018000000000000000e+03
2.012000000000000000e+03
2.008000000000000000e+03
2.005000000000000000e+03
2.003000000000000000e+03
2.003000000000000000e+03
2.001000000000000000e+03
2.000000000000000000e+03
2.003000000000000000e+03
2.005000000000000000e+03
2.008000000000000000e+03
2.013000000000000000e+03
2.017000000000000000e+03
2.024000000000000000e+03
2.026000000000000000e+03
2.028000000000000000e+03
2.028000000000000000e+03
2.028000000000000000e+03
2.029000000000000000e+03
2.026000000000000000e+03
2.023000000000000000e+03
2.017000000000000000e+03
2.012000000000000000e+03
2.010000000000000000e+03
2.008000000000000000e+03
2.006000000000000000e+03
2.005000000000000000e+03
2.004000000000000000e+03
2.006000000000000000e+03
2.010000000000000000e+03
2.014000000000000000e+03
2.017000000000000000e+03
2.022000000000000000e+03
2.028000000000000000e+03
2.032000000000000000e+03
2.034000000000000000e+03
2.033000000000000000e+03
2.034000000000000000e+03
2.035000000000000000e+03
2.033000000000000000e+03
2.029000000000000000e+03
2.022000000000000000e+03
2.017000000000000000e+03
2.015000000000000000e+03
2.012000000000000000e+03
2.012000000000000000e+03
2.011000000000000000e+03
2.010000000000000000e+03
2.012000000000000000e+03
2.014000000000000000e+03
2.019000000000000000e+03
2.023000000000000000e+03
2.028000000000000000e+03
2.034000000000000000e+03
2.035000000000000000e+03
2.038000000000000000e+03
2.037000000000000000e+03
2.038000000000000000e+03
2.038000000000000000e+03
2.035000000000000000e+03
2.032000000000000000e+03
2.026000000000000000e+03
2.021000000000000000e+03
2.019000000000000000e+03
2.016000000000000000e+03
2.014000000000000000e+03
2.012000000000000000e+03
2.013000000000000000e+03
2.016000000000000000e+03
2.018000000000000000e+03
2.023000000000000000e+03
2.027000000000000000e+03
2.031000000000000000e+03
2.036000000000000000e+03
2.039000000000000000e+03
2.042000000000000000e+03
2.041000000000000000e+03
2.042000000000000000e+03
2.043000000000000000e+03
2.040000000000000000e+03
2.036000000000000000e+03
2.030000000000000000e+03
2.027000000000000000e+03
2.024000000000000000e+03
2.021000000000000000e+03
2.020000000000000000e+03
2.020000000000000000e+03
2.019000000000000000e+03
2.020000000000000000e+03
2.022000000000000000e+03
2.025000000000000000e+03
2.028000000000000000e+03
2.034000000000000000e+03
2.039000000000000000e+03
2.042000000000000000e+03
2.045000000000000000e+03
2.044000000000000000e+03
2.044000000000000000e+03
2.046000000000000000e+03
2.043000000000000000e+03
2.040000000000000000e+03
2.033000000000000000e+03
2.028000000000000000e+03
2.026000000000000000e+03
2.022000000000000000e+03
2.021000000000000000e+03
2.020000000000000000e+03
2.019000000000000000e+03
2.022000000000000000e+03
2.024000000000000000e+03
2.028000000000000000e+03
2.031000000000000000e+03
2.036000000000000000e+03
2.040000000000000000e+03
2.044000000000000000e+03
2.046000000000000000e+03
2.047000000000000000e+03
2.047000000000000000e+03
2.048000000000000000e+03
2.044000000000000000e+03
2.041000000000000000e+03
2.035000000000000000e+03
2.030000000000000000e+03
2.028000000000000000e+03
2.026000000000000000e+03
2.026000000000000000e+03
2.024000000000000000e+03
2.024000000000000000e+03
2.025000000000000000e+03
2.028000000000000000e+03
2.031000000000000000e+03
2.034000000000000000e+03
2.039000000000000000e+03
2.045000000000000000e+03
2.047000000000000000e+03
2.049000000000000000e+03
2.050000000000000000e+03
2.050000000000000000e+03
2.051000000000000000e+03
2.049000000000000000e+03
2.045000000000000000e+03
2.039000000000000000e+03
2.035000000000000000e+03
2.032000000000000000e+03
2.030000000000000000e+03
2.028000000000000000e+03
2.026000000000000000e+03
2.026000000000000000e+03
2.028000000000000000e+03
2.030000000000000000e+03
2.034000000000000000e+03
2.037000000000000000e+03
2.042000000000000000e+03
2.047000000000000000e+03
2.051000000000000000e+03
2.053000000000000000e+03
2.054000000000000000e+03
2.053000000000000000e+03
2.054000000000000000e+03
2.052000000000000000e+03
2.047000000000000000e+03
2.042000000000000000e+03
2.036000000000000000e+03
2.035000000000000000e+03
2.032000000000000000e+03
2.030000000000000000e+03
2.028000000000000000e+03
2.027000000000000000e+03
2.030000000000000000e+03
2.031000000000000000e+03
2.033000000000000000e+03
2.037000000000000000e+03
2.043000000000000000e+03
2.049000000000000000e+03
2.052000000000000000e+03
2.055000000000000000e+03
2.055000000000000000e+03
2.054000000000000000e+03
2.055000000000000000e+03
2.052000000000000000e+03
2.048000000000000000e+03
2.042000000000000000e+03
2.038000000000000000e+03
2.035000000000000000e+03
2.032000000000000000e+03
2.030000000000000000e+03
2.029000000000000000e+03
2.027000000000000000e+03
2.029000000000000000e+03
2.032000000000000000e+03
2.036000000000000000e+03
2.039000000000000000e+03
2.043000000000000000e+03
2.047000000000000000e+03
2.051000000000000000e+03
2.053000000000000000e+03
2.053000000000000000e+03
2.054000000000000000e+03
2.053000000000000000e+03
2.051000000000000000e+03
2.046000000000000000e+03
2.040000000000000000e+03
2.036000000000000000e+03
2.035000000000000000e+03
2.031000000000000000e+03
2.030000000000000000e+03
2.029000000000000000e+03
2.029000000000000000e+03
2.031000000000000000e+03
2.034000000000000000e+03
2.038000000000000000e+03
2.042000000000000000e+03
2.045000000000000000e+03
2.053000000000000000e+03
2.055000000000000000e+03
2.057000000000000000e+03
2.057000000000000000e+03
2.056000000000000000e+03
2.058000000000000000e+03
2.054000000000000000e+03
2.051000000000000000e+03
2.045000000000000000e+03
2.041000000000000000e+03
2.040000000000000000e+03
2.037000000000000000e+03
2.036000000000000000e+03
2.034000000000000000e+03
2.034000000000000000e+03
2.036000000000000000e+03
2.038000000000000000e+03
2.041000000000000000e+03
2.045000000000000000e+03
2.048000000000000000e+03
2.055000000000000000e+03
2.058000000000000000e+03
2.058000000000000000e+03
2.058000000000000000e+03
2.057000000000000000e+03
2.057000000000000000e+03
2.056000000000000000e+03
2.054000000000000000e+03
2.049000000000000000e+03
2.042000000000000000e+03
2.040000000000000000e+03
2.038000000000000000e+03
2.038000000000000000e+03
2.036000000000000000e+03
2.035000000000000000e+03
2.035000000000000000e+03
2.037000000000000000e+03
2.042000000000000000e+03
2.045000000000000000e+03
2.051000000000000000e+03
2.055000000000000000e+03
2.060000000000000000e+03
2.061000000000000000e+03
2.062000000000000000e+03
2.061000000000000000e+03
2.062000000000000000e+03
2.058000000000000000e+03
2.055000000000000000e+03
2.051000000000000000e+03
2.046000000000000000e+03
2.044000000000000000e+03
2.041000000000000000e+03
2.039000000000000000e+03
2.038000000000000000e+03
2.036000000000000000e+03
2.038000000000000000e+03
2.040000000000000000e+03
2.043000000000000000e+03
2.047000000000000000e+03
2.051000000000000000e+03
2.056000000000000000e+03
2.059000000000000000e+03
2.060000000000000000e+03
2.062000000000000000e+03
2.061000000000000000e+03
2.062000000000000000e+03
2.059000000000000000e+03
2.057000000000000000e+03
2.052000000000000000e+03
2.046000000000000000e+03
2.044000000000000000e+03
2.042000000000000000e+03
2.040000000000000000e+03
2.038000000000000000e+03
2.038000000000000000e+03
2.040000000000000000e+03
2.041000000000000000e+03
2.045000000000000000e+03
2.049000000000000000e+03
2.054000000000000000e+03
2.059000000000000000e+03
2.062000000000000000e+03
2.063000000000000000e+03
2.063000000000000000e+03
2.065000000000000000e+03
2.065000000000000000e+03
2.061000000000000000e+03
2.058000000000000000e+03
2.053000000000000000e+03
2.049000000000000000e+03
2.046000000000000000e+03
2.043000000000000000e+03
2.041000000000000000e+03
2.039000000000000000e+03
2.038000000000000000e+03
2.039000000000000000e+03
2.041000000000000000e+03
2.044000000000000000e+03
2.048000000000000000e+03
2.051000000000000000e+03
2.056000000000000000e+03
2.058000000000000000e+03
2.059000000000000000e+03
2.059000000000000000e+03
2.060000000000000000e+03
2.062000000000000000e+03
2.058000000000000000e+03
2.056000000000000000e+03
2.052000000000000000e+03
2.049000000000000000e+03
2.046000000000000000e+03
2.044000000000000000e+03
2.040000000000000000e+03
2.039000000000000000e+03
2.039000000000000000e+03
2.040000000000000000e+03
2.041000000000000000e+03
2.043000000000000000e+03
2.047000000000000000e+03
2.052000000000000000e+03
2.058000000000000000e+03
2.060000000000000000e+03
2.061000000000000000e+03
2.062000000000000000e+03
2.063000000000000000e+03
2.064000000000000000e+03
2.060000000000000000e+03
2.056000000000000000e+03
2.052000000000000000e+03
2.048000000000000000e+03
2.045000000000000000e+03
2.041000000000000000e+03
2.038000000000000000e+03
2.036000000000000000e+03
2.034000000000000000e+03
2.037000000000000000e+03
2.038000000000000000e+03
2.041000000000000000e+03
2.045000000000000000e+03
2.051000000000000000e+03
2.055000000000000000e+03
2.059000000000000000e+03
2.061000000000000000e+03
2.062000000000000000e+03
2.062000000000000000e+03
2.061000000000000000e+03
2.060000000000000000e+03
2.057000000000000000e+03
2.053000000000000000e+03
2.048000000000000000e+03
2.046000000000000000e+03
2.041000000000000000e+03
2.039000000000000000e+03
2.037000000000000000e+03
2.038000000000000000e+03
2.040000000000000000e+03
2.041000000000000000e+03
2.043000000000000000e+03
2.048000000000000000e+03
2.052000000000000000e+03
2.057000000000000000e+03
2.061000000000000000e+03
2.063000000000000000e+03
2.063000000000000000e+03
2.065000000000000000e+03
2.066000000000000000e+03
2.066000000000000000e+03
2.062000000000000000e+03
2.057000000000000000e+03
2.052000000000000000e+03
2.048000000000000000e+03
2.047000000000000000e+03
2.044000000000000000e+03
2.042000000000000000e+03
2.041000000000000000e+03
2.042000000000000000e+03
2.043000000000000000e+03
2.046000000000000000e+03
2.050000000000000000e+03
2.056000000000000000e+03
2.060000000000000000e+03
2.063000000000000000e+03
2.065000000000000000e+03
2.065000000000000000e+03
2.066000000000000000e+03
2.066000000000000000e+03
2.065000000000000000e+03
2.062000000000000000e+03
2.056000000000000000e+03
2.052000000000000000e+03
2.050000000000000000e+03
2.046000000000000000e+03
2.044000000000000000e+03
2.043000000000000000e+03
2.042000000000000000e+03
2.043000000000000000e+03
2.044000000000000000e+03
2.045000000000000000e+03
2.050000000000000000e+03
2.056000000000000000e+03
2.060000000000000000e+03
2.064000000000000000e+03
2.066000000000000000e+03
2.066000000000000000e+03
2.067000000000000000e+03
2.067000000000000000e+03
2.066000000000000000e+03
2.062000000000000000e+03
2.057000000000000000e+03
2.053000000000000000e+03
2.050000000000000000e+03
2.047000000000000000e+03
2.044000000000000000e+03
2.043000000000000000e+03
2.042000000000000000e+03
2.043000000000000000e+03
2.045000000000000000e+03
2.047000000000000000e+03
2.051000000000000000e+03
2.056000000000000000e+03
2.060000000000000000e+03
2.064000000000000000e+03
2.065000000000000000e+03
2.067000000000000000e+03
2.067000000000000000e+03
2.069000000000000000e+03
2.067000000000000000e+03
2.064000000000000000e+03
2.059000000000000000e+03
2.056000000000000000e+03
2.052000000000000000e+03
2.049000000000000000e+03
2.046000000000000000e+03
2.044000000000000000e+03
2.044000000000000000e+03
2.044000000000000000e+03
2.045000000000000000e+03
2.046000000000000000e+03
2.050000000000000000e+03
2.055000000000000000e+03
2.058000000000000000e+03
2.062000000000000000e+03
2.063000000000000000e+03
2.064000000000000000e+03
2.065000000000000000e+03
2.064000000000000000e+03
2.064000000000000000e+03
2.060000000000000000e+03
2.056000000000000000e+03
2.052000000000000000e+03
2.048000000000000000e+03
2.046000000000000000e+03
2.044000000000000000e+03
2.043000000000000000e+03
2.042000000000000000e+03
2.044000000000000000e+03
2.045000000000000000e+03
2.048000000000000000e+03
2.052000000000000000e+03
2.059000000000000000e+03
2.065000000000000000e+03
2.069000000000000000e+03
2.070000000000000000e+03
2.072000000000000000e+03
2.074000000000000000e+03
2.074000000000000000e+03
2.073000000000000000e+03
2.069000000000000000e+03
2.065000000000000000e+03
2.061000000000000000e+03
2.058000000000000000e+03
2.057000000000000000e+03
2.054000000000000000e+03
2.053000000000000000e+03
2.054000000000000000e+03
2.054000000000000000e+03
2.055000000000000000e+03
2.057000000000000000e+03
2.062000000000000000e+03
2.066000000000000000e+03
2.069000000000000000e+03
2.074000000000000000e+03
2.075000000000000000e+03
2.076000000000000000e+03
2.078000000000000000e+03
2.078000000000000000e+03
2.077000000000000000e+03
2.072000000000000000e+03
2.068000000000000000e+03
2.062000000000000000e+03
2.060000000000000000e+03
2.056000000000000000e+03
2.053000000000000000e+03
2.051000000000000000e+03
2.049000000000000000e+03
2.049000000000000000e+03
2.049000000000000000e+03
2.051000000000000000e+03
2.054000000000000000e+03
2.059000000000000000e+03
2.063000000000000000e+03
2.065000000000000000e+03
2.067000000000000000e+03
2.068000000000000000e+03
2.070000000000000000e+03
2.070000000000000000e+03
2.069000000000000000e+03
2.064000000000000000e+03
2.060000000000000000e+03
2.056000000000000000e+03
2.052000000000000000e+03
2.050000000000000000e+03
2.046000000000000000e+03
2.045000000000000000e+03
2.045000000000000000e+03
2.045000000000000000e+03
2.049000000000000000e+03
2.051000000000000000e+03
2.054000000000000000e+03
2.058000000000000000e+03
2.062000000000000000e+03
2.065000000000000000e+03
2.065000000000000000e+03
2.067000000000000000e+03
2.068000000000000000e+03
2.069000000000000000e+03
2.067000000000000000e+03
2.065000000000000000e+03
2.060000000000000000e+03
2.057000000000000000e+03
2.053000000000000000e+03
2.051000000000000000e+03
2.048000000000000000e+03
2.047000000000000000e+03
2.046000000000000000e+03
2.047000000000000000e+03
2.048000000000000000e+03
2.051000000000000000e+03
2.054000000000000000e+03
2.059000000000000000e+03
2.063000000000000000e+03
2.066000000000000000e+03
2.068000000000000000e+03
2.068000000000000000e+03
2.069000000000000000e+03
2.070000000000000000e+03
2.068000000000000000e+03
2.066000000000000000e+03
2.062000000000000000e+03
2.059000000000000000e+03
2.055000000000000000e+03
2.052000000000000000e+03
2.050000000000000000e+03
2.048000000000000000e+03
2.048000000000000000e+03
2.045000000000000000e+03
2.048000000000000000e+03
2.050000000000000000e+03
2.052000000000000000e+03
2.057000000000000000e+03
2.062000000000000000e+03
2.065000000000000000e+03
2.067000000000000000e+03
2.067000000000000000e+03
2.068000000000000000e+03
2.070000000000000000e+03
2.069000000000000000e+03
2.066000000000000000e+03
2.061000000000000000e+03
2.058000000000000000e+03
2.053000000000000000e+03
2.052000000000000000e+03
2.049000000000000000e+03
2.049000000000000000e+03
2.048000000000000000e+03
2.048000000000000000e+03
2.049000000000000000e+03
2.051000000000000000e+03
2.054000000000000000e+03
2.060000000000000000e+03
2.063000000000000000e+03
2.067000000000000000e+03
2.069000000000000000e+03
2.070000000000000000e+03
2.071000000000000000e+03
2.072000000000000000e+03
2.071000000000000000e+03
2.068000000000000000e+03
2.063000000000000000e+03
2.060000000000000000e+03
2.056000000000000000e+03
2.053000000000000000e+03
2.051000000000000000e+03
2.049000000000000000e+03
2.049000000000000000e+03
2.048000000000000000e+03
2.048000000000000000e+03
2.050000000000000000e+03
2.053000000000000000e+03
2.056000000000000000e+03
2.060000000000000000e+03
2.061000000000000000e+03
2.061000000000000000e+03
2.059000000000000000e+03
2.057000000000000000e+03
2.053000000000000000e+03
2.046000000000000000e+03
2.037000000000000000e+03
2.029000000000000000e+03
2.022000000000000000e+03
2.016000000000000000e+03
2.012000000000000000e+03
2.010000000000000000e+03
2.009000000000000000e+03
2.009000000000000000e+03
2.012000000000000000e+03
2.016000000000000000e+03
2.021000000000000000e+03
2.028000000000000000e+03
2.038000000000000000e+03
2.045000000000000000e+03
2.053000000000000000e+03
2.057000000000000000e+03
2.062000000000000000e+03
2.069000000000000000e+03
2.079000000000000000e+03
2.092000000000000000e+03
2.108000000000000000e+03
2.131000000000000000e+03
2.159000000000000000e+03
2.189000000000000000e+03
2.220000000000000000e+03
2.250000000000000000e+03
2.278000000000000000e+03
2.305000000000000000e+03
2.327000000000000000e+03
2.350000000000000000e+03
2.370000000000000000e+03
2.387000000000000000e+03
2.403000000000000000e+03
2.420000000000000000e+03
2.434000000000000000e+03
2.447000000000000000e+03
2.458000000000000000e+03
2.467000000000000000e+03
2.473000000000000000e+03
2.473000000000000000e+03
2.468000000000000000e+03
2.455000000000000000e+03
2.438000000000000000e+03
2.416000000000000000e+03
2.388000000000000000e+03
2.354000000000000000e+03
2.316000000000000000e+03
2.275000000000000000e+03
2.235000000000000000e+03
2.196000000000000000e+03
2.162000000000000000e+03
2.134000000000000000e+03
2.115000000000000000e+03
2.103000000000000000e+03
2.097000000000000000e+03
2.091000000000000000e+03
2.086000000000000000e+03
2.083000000000000000e+03
2.080000000000000000e+03
2.076000000000000000e+03
2.071000000000000000e+03
2.065000000000000000e+03
2.058000000000000000e+03
2.053000000000000000e+03
2.046000000000000000e+03
2.042000000000000000e+03
2.037000000000000000e+03
2.033000000000000000e+03
2.032000000000000000e+03
2.031000000000000000e+03
2.030000000000000000e+03
2.033000000000000000e+03
2.036000000000000000e+03
2.039000000000000000e+03
2.041000000000000000e+03
2.041000000000000000e+03
2.040000000000000000e+03
2.040000000000000000e+03
2.040000000000000000e+03
2.037000000000000000e+03
2.034000000000000000e+03
2.030000000000000000e+03
2.026000000000000000e+03
2.022000000000000000e+03
2.018000000000000000e+03
2.015000000000000000e+03
2.012000000000000000e+03
2.010000000000000000e+03
2.008000000000000000e+03
2.009000000000000000e+03
2.010000000000000000e+03
2.013000000000000000e+03
2.018000000000000000e+03
2.022000000000000000e+03
2.026000000000000000e+03
2.027000000000000000e+03
2.030000000000000000e+03
2.031000000000000000e+03
2.032000000000000000e+03
2.031000000000000000e+03
2.028000000000000000e+03
2.024000000000000000e+03
2.019000000000000000e+03
2.017000000000000000e+03
2.015000000000000000e+03
2.012000000000000000e+03
2.009000000000000000e+03
2.010000000000000000e+03
2.010000000000000000e+03
2.009000000000000000e+03
2.011000000000000000e+03
2.014000000000000000e+03
2.020000000000000000e+03
2.025000000000000000e+03
2.028000000000000000e+03
2.029000000000000000e+03
2.030000000000000000e+03
2.031000000000000000e+03
2.034000000000000000e+03
2.034000000000000000e+03
2.031000000000000000e+03
2.028000000000000000e+03
2.025000000000000000e+03
2.022000000000000000e+03
2.018000000000000000e+03
2.016000000000000000e+03
2.014000000000000000e+03
2.014000000000000000e+03
2.014000000000000000e+03
2.015000000000000000e+03
2.017000000000000000e+03
2.021000000000000000e+03
2.027000000000000000e+03
2.032000000000000000e+03
2.036000000000000000e+03
2.037000000000000000e+03
2.036000000000000000e+03
2.039000000000000000e+03
2.041000000000000000e+03
2.040000000000000000e+03
2.037000000000000000e+03
2.033000000000000000e+03
2.030000000000000000e+03
2.026000000000000000e+03
2.024000000000000000e+03
2.023000000000000000e+03
2.021000000000000000e+03
2.019000000000000000e+03
2.019000000000000000e+03
2.021000000000000000e+03
2.024000000000000000e+03
2.028000000000000000e+03
2.034000000000000000e+03
2.038000000000000000e+03
2.042000000000000000e+03
2.044000000000000000e+03
2.045000000000000000e+03
2.046000000000000000e+03
2.048000000000000000e+03
2.047000000000000000e+03
2.044000000000000000e+03
2.041000000000000000e+03
2.038000000000000000e+03
2.035000000000000000e+03
2.032000000000000000e+03
2.030000000000000000e+03
2.028000000000000000e+03
2.028000000000000000e+03
2.028000000000000000e+03
2.029000000000000000e+03
2.031000000000000000e+03
2.035000000000000000e+03
2.040000000000000000e+03
2.045000000000000000e+03
2.050000000000000000e+03
2.052000000000000000e+03
2.055000000000000000e+03
2.057000000000000000e+03
2.057000000000000000e+03
2.058000000000000000e+03
2.055000000000000000e+03
2.051000000000000000e+03
2.048000000000000000e+03
2.043000000000000000e+03
2.040000000000000000e+03
2.038000000000000000e+03
2.035000000000000000e+03
2.037000000000000000e+03
2.037000000000000000e+03
2.039000000000000000e+03
2.041000000000000000e+03
2.045000000000000000e+03
2.051000000000000000e+03
2.055000000000000000e+03
2.060000000000000000e+03
2.061000000000000000e+03
2.063000000000000000e+03
2.065000000000000000e+03
2.067000000000000000e+03
2.066000000000000000e+03
2.064000000000000000e+03
2.061000000000000000e+03
2.059000000000000000e+03
2.055000000000000000e+03
2.053000000000000000e+03
2.050000000000000000e+03
2.049000000000000000e+03
2.049000000000000000e+03
2.049000000000000000e+03
2.050000000000000000e+03
2.051000000000000000e+03
2.056000000000000000e+03
2.061000000000000000e+03
2.067000000000000000e+03
2.070000000000000000e+03
2.073000000000000000e+03
2.073000000000000000e+03
2.075000000000000000e+03
2.077000000000000000e+03
2.075000000000000000e+03
2.072000000000000000e+03
2.068000000000000000e+03
2.066000000000000000e+03
2.063000000000000000e+03
2.061000000000000000e+03
2.059000000000000000e+03
2.058000000000000000e+03
2.059000000000000000e+03
2.059000000000000000e+03
2.060000000000000000e+03
2.062000000000000000e+03
2.067000000000000000e+03
2.073000000000000000e+03
2.077000000000000000e+03
2.082000000000000000e+03
2.085000000000000000e+03
2.086000000000000000e+03
2.089000000000000000e+03
2.090000000000000000e+03
2.090000000000000000e+03
2.087000000000000000e+03
2.084000000000000000e+03
2.083000000000000000e+03
2.081000000000000000e+03
2.079000000000000000e+03
2.076000000000000000e+03
2.076000000000000000e+03
2.077000000000000000e+03
2.076000000000000000e+03
2.079000000000000000e+03
2.081000000000000000e+03
2.086000000000000000e+03
2.092000000000000000e+03
2.097000000000000000e+03
2.101000000000000000e+03
2.103000000000000000e+03
2.106000000000000000e+03
2.109000000000000000e+03
2.109000000000000000e+03
2.108000000000000000e+03
2.105000000000000000e+03
2.102000000000000000e+03
2.100000000000000000e+03
2.097000000000000000e+03
2.095000000000000000e+03
2.092000000000000000e+03
2.090000000000000000e+03
2.090000000000000000e+03
2.091000000000000000e+03
2.092000000000000000e+03
2.094000000000000000e+03
2.098000000000000000e+03
2.103000000000000000e+03
2.108000000000000000e+03
2.113000000000000000e+03
2.115000000000000000e+03
2.116000000000000000e+03
2.117000000000000000e+03
2.118000000000000000e+03
2.119000000000000000e+03
2.115000000000000000e+03
2.112000000000000000e+03
2.109000000000000000e+03
2.105000000000000000e+03
2.103000000000000000e+03
2.100000000000000000e+03
2.099000000000000000e+03
2.099000000000000000e+03
2.099000000000000000e+03
2.100000000000000000e+03
2.100000000000000000e+03
2.103000000000000000e+03
2.108000000000000000e+03
2.111000000000000000e+03
2.113000000000000000e+03
2.114000000000000000e+03
2.116000000000000000e+03
2.116000000000000000e+03
2.115000000000000000e+03
2.113000000000000000e+03
2.108000000000000000e+03
2.104000000000000000e+03
2.099000000000000000e+03
2.094000000000000000e+03
2.089000000000000000e+03
2.085000000000000000e+03
2.082000000000000000e+03
2.079000000000000000e+03
2.078000000000000000e+03
2.076000000000000000e+03
2.076000000000000000e+03
2.078000000000000000e+03
2.082000000000000000e+03
2.083000000000000000e+03
2.084000000000000000e+03
2.084000000000000000e+03
2.083000000000000000e+03
2.082000000000000000e+03
2.081000000000000000e+03
2.078000000000000000e+03
2.070000000000000000e+03
2.066000000000000000e+03
2.060000000000000000e+03
2.056000000000000000e+03
2.052000000000000000e+03
2.048000000000000000e+03
2.044000000000000000e+03
2.041000000000000000e+03
2.037000000000000000e+03
2.035000000000000000e+03
2.037000000000000000e+03
2.037000000000000000e+03
2.039000000000000000e+03
2.043000000000000000e+03
2.044000000000000000e+03
2.043000000000000000e+03
2.041000000000000000e+03
2.042000000000000000e+03
2.040000000000000000e+03
2.039000000000000000e+03
2.033000000000000000e+03
2.028000000000000000e+03
2.023000000000000000e+03
2.020000000000000000e+03
2.015000000000000000e+03
2.011000000000000000e+03
2.008000000000000000e+03
2.005000000000000000e+03
2.003000000000000000e+03
2.003000000000000000e+03
2.003000000000000000e+03
2.007000000000000000e+03
2.011000000000000000e+03
2.015000000000000000e+03
2.017000000000000000e+03
2.017000000000000000e+03
2.016000000000000000e+03
2.018000000000000000e+03
2.016000000000000000e+03
2.015000000000000000e+03
2.011000000000000000e+03
2.006000000000000000e+03
2.002000000000000000e+03
1.999000000000000000e+03
1.997000000000000000e+03
1.993000000000000000e+03
1.990000000000000000e+03
1.989000000000000000e+03
1.987000000000000000e+03
1.988000000000000000e+03
1.989000000000000000e+03
1.993000000000000000e+03
1.998000000000000000e+03
2.003000000000000000e+03
2.005000000000000000e+03
2.008000000000000000e+03
2.009000000000000000e+03
2.010000000000000000e+03
2.012000000000000000e+03
2.010000000000000000e+03
2.007000000000000000e+03
2.003000000000000000e+03
1.999000000000000000e+03
1.996000000000000000e+03
1.994000000000000000e+03
1.992000000000000000e+03
1.990000000000000000e+03
1.989000000000000000e+03
1.988000000000000000e+03
1.989000000000000000e+03
1.991000000000000000e+03
1.996000000000000000e+03
2.001000000000000000e+03
2.005000000000000000e+03
2.008000000000000000e+03
2.011000000000000000e+03
2.010000000000000000e+03
2.013000000000000000e+03
2.014000000000000000e+03
2.012000000000000000e+03
2.009000000000000000e+03
2.005000000000000000e+03
2.001000000000000000e+03
1.999000000000000000e+03
1.996000000000000000e+03
1.993000000000000000e+03
1.993000000000000000e+03
1.994000000000000000e+03
1.994000000000000000e+03
1.996000000000000000e+03
1.997000000000000000e+03
2.000000000000000000e+03
2.006000000000000000e+03
2.010000000000000000e+03
2.013000000000000000e+03
2.014000000000000000e+03
2.015000000000000000e+03
2.017000000000000000e+03
2.018000000000000000e+03
2.018000000000000000e+03
2.014000000000000000e+03
2.012000000000000000e+03
2.009000000000000000e+03
2.004000000000000000e+03
2.002000000000000000e+03
1.999000000000000000e+03
1.999000000000000000e+03
1.997000000000000000e+03
1.998000000000000000e+03
1.999000000000000000e+03
2.001000000000000000e+03
2.003000000000000000e+03
2.011000000000000000e+03
2.015000000000000000e+03
2.019000000000000000e+03
2.022000000000000000e+03
2.023000000000000000e+03
2.026000000000000000e+03
2.024000000000000000e+03
2.023000000000000000e+03
2.019000000000000000e+03
2.016000000000000000e+03
2.011000000000000000e+03
2.009000000000000000e+03
2.008000000000000000e+03
2.006000000000000000e+03
2.006000000000000000e+03
2.005000000000000000e+03
2.005000000000000000e+03
2.005000000000000000e+03
2.009000000000000000e+03
2.012000000000000000e+03
2.017000000000000000e+03
2.022000000000000000e+03
2.025000000000000000e+03
2.028000000000000000e+03
2.028000000000000000e+03
2.032000000000000000e+03
2.032000000000000000e+03
2.031000000000000000e+03
2.027000000000000000e+03
2.023000000000000000e+03
2.021000000000000000e+03
2.017000000000000000e+03
2.014000000000000000e+03
2.013000000000000000e+03
2.011000000000000000e+03
2.011000000000000000e+03
2.010000000000000000e+03
2.010000000000000000e+03
2.013000000000000000e+03
2.017000000000000000e+03
2.023000000000000000e+03
2.026000000000000000e+03
2.030000000000000000e+03
2.032000000000000000e+03
2.033000000000000000e+03
2.035000000000000000e+03
2.035000000000000000e+03
2.033000000000000000e+03
2.029000000000000000e+03
2.024000000000000000e+03
2.022000000000000000e+03
2.019000000000000000e+03
2.015000000000000000e+03
2.013000000000000000e+03
2.011000000000000000e+03
2.012000000000000000e+03
2.010000000000000000e+03
2.011000000000000000e+03
2.013000000000000000e+03
2.017000000000000000e+03
2.022000000000000000e+03
2.026000000000000000e+03
2.031000000000000000e+03
2.033000000000000000e+03
2.035000000000000000e+03
2.038000000000000000e+03
2.038000000000000000e+03
2.035000000000000000e+03
2.032000000000000000e+03
2.029000000000000000e+03
2.026000000000000000e+03
2.022000000000000000e+03
2.019000000000000000e+03
2.015000000000000000e+03
2.015000000000000000e+03
2.014000000000000000e+03
2.015000000000000000e+03
2.017000000000000000e+03
2.017000000000000000e+03
2.021000000000000000e+03
2.028000000000000000e+03
2.032000000000000000e+03
2.035000000000000000e+03
2.037000000000000000e+03
2.038000000000000000e+03
2.040000000000000000e+03
2.040000000000000000e+03
2.038000000000000000e+03
2.035000000000000000e+03
2.031000000000000000e+03
2.027000000000000000e+03
2.025000000000000000e+03
2.022000000000000000e+03
2.020000000000000000e+03
2.019000000000000000e+03
2.017000000000000000e+03
2.018000000000000000e+03
2.018000000000000000e+03
2.019000000000000000e+03
2.025000000000000000e+03
2.029000000000000000e+03
2.032000000000000000e+03
2.034000000000000000e+03
2.035000000000000000e+03
2.037000000000000000e+03
2.040000000000000000e+03
2.040000000000000000e+03
2.039000000000000000e+03
2.036000000000000000e+03
2.033000000000000000e+03
2.031000000000000000e+03
2.027000000000000000e+03
2.024000000000000000e+03
2.022000000000000000e+03
2.022000000000000000e+03
2.020000000000000000e+03
2.020000000000000000e+03
2.021000000000000000e+03
2.023000000000000000e+03
2.028000000000000000e+03
2.033000000000000000e+03
2.036000000000000000e+03
2.038000000000000000e+03
2.040000000000000000e+03
2.041000000000000000e+03
2.043000000000000000e+03
2.043000000000000000e+03
2.042000000000000000e+03
2.038000000000000000e+03
2.035000000000000000e+03
2.032000000000000000e+03
2.028000000000000000e+03
2.025000000000000000e+03
2.022000000000000000e+03
2.021000000000000000e+03
2.021000000000000000e+03
2.021000000000000000e+03
2.022000000000000000e+03
2.024000000000000000e+03
2.029000000000000000e+03
2.033000000000000000e+03
2.038000000000000000e+03
2.041000000000000000e+03
2.040000000000000000e+03
2.044000000000000000e+03
2.045000000000000000e+03
2.046000000000000000e+03
2.044000000000000000e+03
2.041000000000000000e+03
2.038000000000000000e+03
2.035000000000000000e+03
2.032000000000000000e+03
2.029000000000000000e+03
2.027000000000000000e+03
2.025000000000000000e+03
2.025000000000000000e+03
2.025000000000000000e+03
2.026000000000000000e+03
2.028000000000000000e+03
2.032000000000000000e+03
2.036000000000000000e+03
2.041000000000000000e+03
2.043000000000000000e+03
2.044000000000000000e+03
2.045000000000000000e+03
2.048000000000000000e+03
2.048000000000000000e+03
2.046000000000000000e+03
2.043000000000000000e+03
2.040000000000000000e+03
2.036000000000000000e+03
2.031000000000000000e+03
2.027000000000000000e+03
2.024000000000000000e+03
2.024000000000000000e+03
2.023000000000000000e+03
2.024000000000000000e+03
2.025000000000000000e+03
2.026000000000000000e+03
2.031000000000000000e+03
2.037000000000000000e+03
2.041000000000000000e+03
2.045000000000000000e+03
2.046000000000000000e+03
2.048000000000000000e+03
2.050000000000000000e+03
2.049000000000000000e+03
2.048000000000000000e+03
2.044000000000000000e+03
2.041000000000000000e+03
2.038000000000000000e+03
2.035000000000000000e+03
2.031000000000000000e+03
2.028000000000000000e+03
